
0.0,0.0
0.002000400080016003,0.1237625130424385
0.004000800160032006,0.2435368348457732
0.006001200240048009,0.35547600981779026
0.008001600320064013,0.4560105483502602
0.010002000400080016,0.5419748239227639
0.012002400480096018,0.6107191575359203
0.014002800560112022,0.6602036172724233
0.016003200640128026,0.6890702087933811
0.01800360072014403,0.6966908983946954
0.020004000800160033,0.6831897667333101
0.022004400880176037,0.6494385081326183
0.024004800960192037,0.597025434999087
0.02600520104020804,0.5281990858511609
0.028005601120224044,0.44578843550002917
0.030006001200240048,0.3531025351328526
0.03200640128025605,0.2538131390456069
0.03400680136027205,0.15182447771945398
0.03600720144028806,0.051134792463262996
0.03800760152030406,-0.044305461188150846
0.040008001600320066,-0.13073371607259435
0.042008401680336066,-0.20470873678335585
0.04400880176035207,-0.26323267462417865
0.04600920184036807,-0.30385740852597753
0.048009601920384073,-0.3247714032148392
0.05001000200040008,-0.3248640063824356
0.05201040208041608,-0.30376490616359886
0.05401080216043209,-0.26185735053554404
0.05601120224044809,-0.20026466012124608
0.058011602320464095,-0.12081051235158033
0.060012002400480095,-0.025954404474427956
0.0620124024804961,0.08129541744833563
0.0640128025605121,0.1974884778177271
0.06601320264052811,0.3188542640703156
0.0680136027205441,0.4414357621124491
0.07001400280056011,0.561229602194803
0.07201440288057612,0.6743278485341359
0.07401480296059212,0.7770564077351096
0.07601520304060812,0.8661051508932114
0.07801560312062412,0.9386451379236254
0.08001600320064013,0.992428789752951
0.08201640328065612,1.0258694583318464
0.08401680336067213,1.0380975745599559
0.08601720344068814,1.0289913842843457
0.08801760352070415,0.9991811831216373
0.09001800360072014,0.9500269000456166
0.09201840368073615,0.8835698241916843
0.09401880376075215,0.8024601856840288
0.09601920384076815,0.7098631570155792
0.09801960392078415,0.6093466062781061
0.10002000400080016,0.5047545802471681
0.10202040408081617,0.40007100105491245
0.10402080416083216,0.2992784070102381
0.10602120424084817,0.2062167437589955
0.10802160432086418,0.12444721019254357
0.11002200440088018,0.05712598437412514
0.11202240448089618,0.006892304608006328
0.11402280456091218,-0.0242251279650873
0.11602320464092819,-0.034880108171190194
0.11802360472094418,-0.02445669679440471
0.12002400480096019,0.00690889121130378
0.1220244048809762,0.0583330560162964
0.1240248049609922,0.12821607070930646
0.1260252050410082,0.214298719842136
0.1280256051210242,0.31374231149093573
0.1300260052010402,0.423229227250738
0.13202640528105622,0.5390804467227512
0.13402680536107223,0.6573858814836804
0.1360272054410882,0.774142899562581
0.1380276055211042,0.8853981311817885
0.14002800560112022,0.9873875302311368
0.14202840568113623,1.076669727760506
0.14402880576115223,1.150247951503562
0.14602920584116824,1.2056761906608153
0.14802960592118425,1.2411458435118037
0.15003000600120023,1.2555497771070814
0.15203040608121624,1.2485215287978053
0.15403080616123224,1.2204482603243012
0.15603120624124825,1.172457005384174
0.15803160632126426,1.1063746980692595
0.16003200640128026,1.0246633987565679
0.16203240648129627,0.930333013030983
0.16403280656131225,0.8268345968556198
0.16603320664132826,0.717938029221487
0.16803360672134426,0.6075983875184027
0.17003400680136027,0.4998157612399648
0.17203440688137628,0.3984934721779354
0.17403480696139229,0.3072997257343547
0.1760352070414083,0.22953759638159454
0.17803560712142427,0.16802795494102613
0.18003600720144028,0.12500948669713413
0.1820364072814563,0.10205934367055197
0.1840368073614723,0.1000372431060077
0.1860372074414883,0.1190549933054722
0.1880376075215043,0.15847252680057133
0.19003800760152031,0.21692058144751308
0.1920384076815363,0.29234922563472887
0.1940388077615523,0.3821005078871508
0.1960392078415683,0.4830026561907734
0.19803960792158432,0.5914824886465874
0.20004000800160032,0.7036920516596594
0.20204040808161633,0.8156449976500167
0.20404080816163234,0.9233578691064788
0.20604120824164834,1.022991281925119
0.20804160832166432,1.1109860045427966
0.21004200840168033,1.1841891102669289
0.21204240848169634,1.2399657320044002
0.21404280856171234,1.2762924588376945
0.21604320864172835,1.2918290645020298
0.21804360872174436,1.285966025726191
0.22004400880176037,1.2588461463976113
0.22204440888177635,1.2113595211917947
0.22404480896179235,1.145112017145223
0.22604520904180836,1.0623683901647873
0.22804560912182437,0.9659720523947244
0.23004600920184037,0.8592443338466412
0.23204640928185638,0.7458668084134634
0.2340468093618724,0.6297508545796433
0.23604720944188837,0.5148990735372283
0.23804760952190437,0.4052634759874006
0.24004800960192038,0.30460546342328293
0.2420484096819364,0.21636256609359517
0.2440488097619524,0.14352666039203454
0.2460492098419684,0.08853798159017806
0.2480496099219844,0.05319868805017475
0.2500500100020004,0.03860904015578648
0.2520504100820164,0.045128455742661944
0.2540508101620324,0.07236282219436213
0.2560512102420484,0.11917851484366826
0.2580516103220644,0.18374262485671938
0.2600520104020804,0.26358797092268993
0.26205241048209643,0.3557005907424078
0.26405281056211244,0.45662661163315493
0.26605321064212845,0.5625947127777291
0.26805361072214445,0.669649839083376
0.27005401080216046,0.7737934278629327
0.2720544108821764,0.8711251787380638
0.2740548109621924,0.9579813424729701
0.2760552110422084,1.0310646278143176
0.27805561112222443,1.0875611224676165
0.28005601120224044,1.1252400845541013
0.28205641128225645,1.1425330679556551
0.28405681136227245,1.138589577354394
0.28605721144228846,1.1133072805521442
0.28805761152230447,1.0673357073353087
0.2900580116023205,1.0020533037773756
0.2920584116823365,0.9195186551444352
0.2940588117623525,0.8223976060239679
0.2960592118423685,0.7138688604903507
0.2980596119223845,0.5975114077798246
0.30006001200240046,0.4771777630445612
0.30206041208241646,0.35685751546361394
0.30406081216243247,0.24053601949192796
0.3060612122424485,0.1320532371536782
0.3080616123224645,0.03496773393306485
0.3100620124024805,-0.04756935182623567
0.3120624124824965,-0.11292589955939064
0.3140628125625125,-0.15908200245017268
0.3160632126425285,-0.18470146592629932
0.3180636127225445,-0.18917907482518043
0.3200640128025605,-0.17266195412453644
0.32206441288257653,-0.13604426624702887
0.32406481296259254,-0.08093543289023414
0.32606521304260855,-0.0096030076145458
0.3280656131226245,0.07510777621046735
0.3300660132026405,0.16987493088382372
0.3320664132826565,0.27101753648682386
0.3340668133626725,0.37462628403382914
0.33606721344268853,0.47670211323219025
0.33806761352270454,0.5732980315533683
0.34006801360272054,0.6606590885725709
0.34206841368273655,0.7353555449107748
0.34406881376275256,0.794404516293614
0.34606921384276856,0.8353757816791445
0.34806961392278457,0.8564780056259115
0.3500700140028006,0.8566223191847507
0.3520704140828166,0.8354610060032677
0.3540708141628326,0.7933999225938771
0.35607121424284854,0.7315842125678098
0.35807161432286455,0.6518578210893846
0.36007201440288056,0.5566982443153508
0.36207241448289657,0.4491288262470249
0.3640728145629126,0.332611711134301
0.3660732146429286,0.21092524513069974
0.3680736147229446,0.08803017201145193
0.3700740148029606,-0.03207063509925101
0.3720744148829766,-0.14547393496415945
0.3740748149629926,-0.24851434849426884
0.3760752150430086,-0.33789415923431526
0.3780756151230246,-0.41080008401925544
0.38007601520304063,-0.4650028755208609
0.38207641528305664,-0.4989362268350674
0.3840768153630726,-0.5117521817886231
0.3860772154430886,-0.5033510872722167
0.3880776155231046,-0.47438502612839273
0.3900780156031206,-0.42623460896182347
0.3920784156831366,-0.36095994738943005
0.3940788157631526,-0.2812275462479545
0.39607921584316863,-0.1902157056997868
0.39807961592318464,-0.09150178577906141
0.40008001600320064,0.011064671291742812
0.40208041608321665,0.11349846448910707
0.40408081616323266,0.2118200647140015
0.40608121624324867,0.3021967441199202
0.4080816163232647,0.38107850244517816
0.4100820164032807,0.4453239731436294
0.4120824164832967,0.4923118472204699
0.41408281656331264,0.5200338659270193
0.41608321664332865,0.5271660866614287
0.41808361672334465,0.5131158964120273
0.42008401680336066,0.47804310657831045
0.42208441688337667,0.42285438155117766
0.4240848169633927,0.34917119847598815
0.4260852170434087,0.25927247366728795
0.4280856171234247,0.15601388894879803
0.4300860172034407,0.04272677693858368
0.4320864172834567,-0.07689985127714344
0.4340868173634727,-0.19894995521018788
0.4360872174434887,-0.3194191606460602
0.4380876175235047,-0.4343565866295106
0.44008801760352073,-0.5400047774874992
0.4420884176835367,-0.632932780773821
0.4440888177635527,-0.710157654925224
0.4460892178435687,-0.7692501004653691
0.4480896179235847,-0.8084204712483489
0.4500900180036007,-0.8265821175573179
0.4520904180836167,-0.8233898162241724
0.4540908181636327,-0.799251925842719
0.45609121824364873,-0.7553158363204618
0.45809161832366474,-0.6934272284525744
0.46009201840368075,-0.6160645873645187
0.46209241848369675,-0.5262512906631331
0.46409281856371276,-0.42744838687978826
0.46609321864372877,-0.3234318641178351
0.4680936187237448,-0.2181587584775519
0.4700940188037607,-0.11562684734572268
0.47209441888377673,-0.019732899986643404
0.47409481896379274,0.0658654910003369
0.47609521904380875,0.13787960069659522
0.47809561912382476,0.19350618913385476
0.48009601920384076,0.23052691192744473
0.48209641928385677,0.24738700118008528
0.4840968193638728,0.24325042821746568
0.4860972194438888,0.2180295931925083
0.4880976195239048,0.172388489353905
0.4900980196039208,0.1077192298230708
0.4920984196839368,0.02609276874689498
0.4940988197639528,-0.06981443676413407
0.4960992198439688,-0.17681522485270762
0.49809961992398477,-0.2913246276863687
0.5001000200040008,-0.40948686970663384
0.5021004200840168,-0.527311964597305
0.5041008201640328,-0.640817070038506
0.5061012202440488,-0.7461675906981198
0.5081016203240648,-0.8398130288343466
0.5101020204040808,-0.9186127680254811
0.5121024204840968,-0.9799473323087148
0.5141028205641128,-1.021811177755521
0.5161032206441288,-1.042883727994434
0.5181036207241448,-1.0425761362179893
0.5201040208041608,-1.0210521164546489
0.5221044208841769,-0.9792221058617705
0.5241048209641929,-0.9187109649339804
0.5261052210442089,-0.8418003603274293
0.5281056211242249,-0.751347872238661
0.5301060212042409,-0.6506856931495866
0.5321064212842569,-0.5435025080241288
0.5341068213642729,-0.43371274208466504
0.5361072214442889,-0.32531780998436094
0.5381076215243049,-0.22226428365863024
0.5401080216043209,-0.1283040053392432
0.5421084216843368,-0.04686110327844972
0.5441088217643528,0.019089376899538657
0.5461092218443688,0.06712692395632291
0.5481096219243848,0.09547135873225376
0.5501100220044008,0.10304593713355409
0.5521104220844169,0.08951552206519714
0.5541108221644329,0.055298471508925695
0.5561112222444489,0.0015518214363199334
0.5581116223244649,-0.06986971133146702
0.5601120224044809,-0.15647945339386699
0.5621124224844969,-0.25524689692666336
0.5641128225645129,-0.3627050967057961
0.5661132226445289,-0.47507353588706097
0.5681136227245449,-0.5883921062220365
0.5701140228045609,-0.6986614544985765
0.5721144228845769,-0.8019847213772286
0.5741148229645929,-0.8947056494483832
0.5761152230446089,-0.973538166007988
0.5781156231246249,-1.035682848182162
0.580116023204641,-1.0789261429151884
0.582116423284657,-1.101718825496244
0.584116823364673,-1.1032309160783702
0.586117223444689,-1.083381107962722
0.588117623524705,-1.0428396647144187
0.590118023604721,-0.9830046834306427
0.592118423684737,-0.9059525653749965
0.594118823764753,-0.8143644492730728
0.596119223844769,-0.7114312144382056
0.5981196239247849,-0.6007404203733182
0.6001200240048009,-0.4861491896588216
0.6021204240848169,-0.3716475391011429
0.6041208241648329,-0.26121700262582337
0.6061212242448489,-0.15868955625783332
0.6081216243248649,-0.06761184482540195
0.610122024404881,0.008880477867970638
0.612122424484897,0.06817384207642763
0.614122824564913,0.10826935126513254
0.616123224644929,0.12785358607057035
0.618123624724945,0.12634511381385183
0.620124024804961,0.10391505529976136
0.622124424884977,0.06148098003481001
0.624124824964993,0.0006743462289830471
0.626125225045009,-0.07621736049071193
0.628125625125025,-0.16633173905809273
0.630126025205041,-0.26633296104391957
0.632126425285057,-0.37253003811549584
0.634126825365073,-0.4810076775093829
0.636127225445089,-0.587765088031958
0.638127625525105,-0.6888578173385494
0.640128025605121,-0.7805375938140485
0.6421284256851371,-0.8593852170937575
0.6441288257651531,-0.9224317876166486
0.6461292258451691,-0.9672639788631617
0.6481296259251851,-0.9921096214507598
0.6501300260052011,-0.9959005660007176
0.6521304260852171,-0.9783105969211947
0.6541308261652331,-0.9397670534377247
0.656131226245249,-0.8814357460074068
0.658131626325265,-0.8051797026545204
0.660132026405281,-0.7134932072230071
0.662132426485297,-0.6094134671862639
0.664132826565313,-0.4964130414547042
0.666133226645329,-0.3782768404798509
0.668133626725345,-0.258968057705656
0.670134026805361,-0.14248778368633574
0.6721344268853771,-0.032733278073859395
0.6741348269653931,0.0666400777574061
0.6761352270454091,0.1523482551221389
0.6781356271254251,0.22159489096762613
0.6801360272054411,0.27217031728326935
0.6821364272854571,0.3025297974322173
0.6841368273654731,0.3118481967603824
0.6861372274454891,0.30004914999892274
0.6881376275255051,0.26780769180058717
0.6901380276055211,0.21652625720732643
0.6921384276855371,0.14828490260645882
0.6941388277655531,0.06576751134931236
0.6961392278455691,-0.027833400698920763
0.6981396279255851,-0.12892990599878218
0.7001400280056012,-0.23366590003732768
0.7021404280856172,-0.3380538407157716
0.7041408281656332,-0.43811614640701435
0.7061412282456492,-0.5300262415641444
0.7081416283256652,-0.6102442512518149
0.7101420284056812,-0.6756425356124535
0.7121424284856971,-0.7236166153479189
0.7141428285657131,-0.752177557034421
0.7161432286457291,-0.760022544144924
0.7181436287257451,-0.74658113274372
0.7201440288057611,-0.7120355525440182
0.7221444288857771,-0.6573143338420997
0.7241448289657931,-0.5840594861626026
0.7261452290458091,-0.49456839176710804
0.7281456291258251,-0.3917124732739511
0.7301460292058412,-0.2788355177542329
0.7321464292858572,-0.1596352606358721
0.7341468293658732,-0.03803242601364193
0.7361472294458892,0.08196813549626852
0.7381476295259052,0.19641929015876075
0.7401480296059212,0.30157141892633277
0.7421484296859372,0.3940052152914616
0.7441488297659532,0.47075277690273665
0.7461492298459692,0.5294026995272574
0.7481496299259852,0.5681854488925533
0.7501500300060012,0.5860359848861205
0.7521504300860172,0.5826314187585901
0.7541508301660332,0.5584023687975804
0.7561512302460492,0.5145176120558361
0.7581516303260653,0.4528425760950378
0.7601520304060813,0.3758731418069037
0.7621524304860973,0.2866471033393938
0.7641528305661133,0.1886364229795795
0.7661532306461293,0.08562409946453059
0.7681536307261452,-0.01842998651428307
0.7701540308061612,-0.11952949520356863
0.7721544308861772,-0.2137833425182546
0.7741548309661932,-0.297543684268076
0.7761552310462092,-0.3675352797468517
0.7781556311262252,-0.4209716500634489
0.7801560312062412,-0.4556539145827824
0.7821564312862572,-0.4700488027269063
0.7841568313662732,-0.4633430764037716
0.7861572314462892,-0.435472434330228
0.7881576315263052,-0.38712387386813263
0.7901580316063213,-0.3197114266485934
0.7921584316863373,-0.23532612788270357
0.7941588317663533,-0.13666199240583748
0.7961592318463693,-0.026920620815449752
0.7981596319263853,0.09030218359600377
0.8001600320064013,0.21114376888046985
0.8021604320864173,0.3316114460869575
0.8041608321664333,0.44772390999401795
0.8061612322464493,0.5556522570443522
0.8081616323264653,0.6518556028783709
0.8101620324064813,0.7332064932517862
0.8121624324864973,0.7971016638407313
0.8141628325665133,0.8415542236675063
0.8161632326465293,0.8652639952200596
0.8181636327265454,0.8676635184566637
0.8201640328065614,0.8489380883498885
0.8221644328865774,0.8100191158655885
0.8241648329665934,0.7525510476798783
0.8261652330466093,0.6788330170054541
0.8281656331266253,0.5917372934184302
0.8301660332066413,0.49460742181147854
0.8321664332866573,0.3911396604086719
0.8341668333666733,0.2852519196520842
0.8361672334466893,0.18094484673464625
0.8381676335267053,0.0821599789086645
0.8401680336067213,-0.00736000741942025
0.8421684336867373,-0.08420399907140544
0.8441688337667533,-0.14541339701780662
0.8461692338467693,-0.18858702936517496
0.8481696339267853,-0.21196630831755015
0.8501700340068014,-0.21449761316616772
0.8521704340868174,-0.19586968846289052
0.8541708341668334,-0.15652473198583483
0.8561712342468494,-0.09764277953009692
0.8581716343268654,-0.02109993990747211
0.8601720344068814,0.07059803972172624
0.8621724344868974,0.17440452377725396
0.8641728345669134,0.28683990819555916
0.8661732346469294,0.4041148857438202
0.8681736347269454,0.5222646882456603
0.8701740348069614,0.6372895482349706
0.8721744348869774,0.7452964021396837
0.8741748349669934,0.8426368130973974
0.8761752350470094,0.9260362254794776
0.8781756351270255,0.9927099704009241
0.8801760352070415,1.0404619110329207
0.8821764352870574,1.0677622317738247
0.8841768353670734,1.0738016144678708
0.8861772354470894,1.0585198816947208
0.8881776355271054,1.0226080920303702
0.8901780356071214,0.9674840130317544
0.8921784356871374,0.895241841180769
0.8941788357671534,0.8085779507011908
0.8961792358471694,0.7106953026896488
0.8981796359271854,0.605189902271938
0.9001800360072014,0.4959233277068469
0.9021804360872174,0.38688584896459854
0.9041808361672334,0.282054986811938
0.9061812362472494,0.18525452502229017
0.9081816363272655,0.10001897227067086
0.9101820364072815,0.029468277137596477
0.9121824364872975,-0.023802763720489062
0.9141828365673135,-0.05781648489737912
0.9161832366473295,-0.07128245934378702
0.9181836367273455,-0.06364324868217269
0.9201840368073615,-0.035094175353363566
0.9221844368873775,0.013423584124183263
0.9241848369673935,0.08025634001144588
0.9261852370474095,0.16309648273540794
0.9281856371274255,0.2590642522776282
0.9301860372074415,0.36480978568807104
0.9321864372874575,0.47663182619761124
0.9341868373674735,0.5906088869214934
0.9361872374474896,0.7027382207596036
0.9381876375275056,0.8090776714500502
0.9401880376075215,0.9058853786254601
0.9421884376875375,0.9897523857742052
0.9441888377675535,1.0577234515269012
0.9461892378475695,1.1074017827579148
0.9481896379275855,1.1370339777963012
0.9501900380076015,1.1455721693864658
0.9521904380876175,1.1327111650711426
0.9541908381676335,1.098899268750922
0.9561912382476495,1.0453223999036345
0.9581916383276655,0.9738620732676659
0.9601920384076815,0.887028728168334
0.9621924384876975,0.7878727702658155
0.9641928385677135,0.679876478366225
0.9661932386477295,0.566830607072145
0.9681936387277456,0.4527000584225757
0.9701940388077616,0.34148338306274806
0.9721944388877776,0.23707109016304884
0.9741948389677936,0.14310778752372588
0.9761952390478096,0.06286303756108702
0.9781956391278256,-0.0008844940169906446
0.9801960392078416,-0.045945491126581195
0.9821964392878576,-0.07079755268831811
0.9841968393678736,-0.07463912159390762
0.9861972394478896,-0.057417866045405774
0.9881976395279056,-0.019832507453022508
0.9901980396079216,0.036691969878417
0.9921984396879376,0.11005484870427706
0.9941988397679536,0.19755415766241563
0.9961992398479695,0.29598245945001606
0.9981996399279855,0.4017405536458784
1.0002000400080016,0.5109650645803846
1.0022004400880176,0.6196653925744292
1.0042008401680336,0.723865175033484
1.0062012402480496,0.8197432440554848
1.0082016403280656,0.9037690850542694
1.0102020404080816,0.9728279957817952
1.0122024404880976,1.0243315101464372
1.0142028405681136,1.056309173434518
1.0162032406481296,1.0674784164412603
1.0182036407281456,1.057290052183829
1.0202040408081616,1.0259477827955268
1.0222044408881776,0.9744010252695192
1.0242048409681936,0.9043113102904772
1.0262052410482096,0.8179934449521643
1.0282056411282257,0.7183335245175124
1.0302060412082417,0.6086866988388157
1.0322064412882577,0.49275831654277125
1.0342068413682737,0.37447265917098577
1.0362072414482897,0.25783391727358773
1.0382076415283057,0.14678433539568542
1.0402080416083217,0.04506455322985198
1.0422084416883377,-0.04391890762390982
1.0442088417683537,-0.11721431508711139
1.0462092418483697,-0.1724292796864098
1.0482096419283857,-0.20781548398631589
1.0502100420084017,-0.2223305856082971
1.0522104420884177,-0.21567510003337087
1.0542108421684337,-0.1883029560927803
1.0562112422484498,-0.14140535008162103
1.0582116423284658,-0.07686847071741121
1.0602120424084818,0.0027934068266323164
1.0622124424884978,0.0945270866729393
1.0642128425685138,0.19484871775602555
1.0662132426485298,0.2999673221958751
1.0682136427285458,0.40591920871007003
1.0702140428085618,0.5087085074843498
1.0722144428885778,0.6044488459792021
1.0742148429685938,0.6895011447156223
1.0762152430486098,0.7606026495893962
1.0782156431286258,0.8149826278375949
1.0802160432086418,0.8504606274161105
1.0822164432886576,0.8655238174931008
1.0842168433686736,0.8593806691209023
1.0862172434486896,0.8319890736441093
1.0882176435287056,0.7840579023187375
1.0902180436087217,0.7170219518509664
1.0922184436887377,0.6329911637571544
1.0942188437687537,0.5346759171730695
1.0962192438487697,0.42529104268827045
1.0982196439287857,0.30844195890075554
1.1002200440088017,0.187996966951044
1.1022204440888177,0.06795022885087665
1.1042208441688337,-0.04771971441515349
1.1062212442488497,-0.15519087096816775
1.1082216443288657,-0.25093317787402897
1.1102220444088817,-0.33183353495045464
1.1122224444888977,-0.39530606140959595
1.1142228445689137,-0.4393836679006473
1.1162232446489297,-0.46278769869222586
1.1182236447289458,-0.46497317592054965
1.1202240448089618,-0.4461480424831036
1.1222244448889778,-0.4072657216358351
1.1242248449689938,-0.34999125699813766
1.1262252450490098,-0.2766422329702884
1.1282256451290258,-0.19010656934097753
1.1302260452090418,-0.09374010343259326
1.1322264452890578,0.008752410546031958
1.1342268453690738,0.11344866758149288
1.1362272454490898,0.2163478877882336
1.1382276455291058,0.31351267337328415
1.1402280456091218,0.4012086192561833
1.1422284456891378,0.47603672957690985
1.1442288457691538,0.5350539472814098
1.1462292458491699,0.5758775252423464
1.1482296459291859,0.5967695400230719
1.1502300460092019,0.5966985531302522
1.1522304460892179,0.5753762344851661
1.1542308461692339,0.5332676501737256
1.1562312462492499,0.4715748498634942
1.158231646329266,0.39219433552614025
1.160232046409282,0.29764991874076496
1.162232446489298,0.19100334607333316
1.164232846569314,0.0757458599186524
1.16623324664933,-0.04432546216814495
1.168233646729346,-0.16524220717892965
1.170234046809362,-0.2830051987954055
1.172234446889378,-0.3937261601588196
1.174234846969394,-0.49376544680661466
1.17623524704941,-0.5798609685877175
1.178235647129426,-0.6492437316271152
1.180236047209442,-0.6997359055909689
1.182236447289458,-0.7298279408001197
1.184236847369474,-0.7387320022052295
1.18623724744949,-0.7264098265584292
1.188237647529506,-0.6935740155485455
1.190238047609522,-0.6416627190864301
1.192238447689538,-0.5727886059700413
1.194238847769554,-0.4896639304043705
1.1962392478495698,-0.39550435000535566
1.1982396479295858,-0.29391490395608566
1.2002400480096018,-0.18876219222126348
1.2022404480896178,-0.08403728575467637
1.2042408481696338,0.016285773875114165
1.2062412482496498,0.10839087070683343
1.2082416483296659,0.18875511313340862
1.2102420484096819,0.25427374022328686
1.2122424484896979,0.302370208969913
1.2142428485697139,0.33108756100574244
1.2162432486497299,0.3391578307661094
1.2182436487297459,0.32604703529164913
1.220244048809762,0.29197415123577974
1.222244448889778,0.23790340652789338
1.224244848969794,0.16551015986191037
1.22624524904981,0.07712157721782838
1.228245649129826,-0.024365792192075006
1.230246049209842,-0.1355886194844821
1.232246449289858,-0.2528359429513423
1.234246849369874,-0.37218063568080284
1.23624724944989,-0.4896185347980804
1.238247649529906,-0.6012103016466013
1.240248049609922,-0.7032209854459468
1.242248449689938,-0.7922523443505936
1.244248849769954,-0.86536323450847
1.24624924984997,-0.9201738005837043
1.248249649929986,-0.9549497752776654
1.250250050010002,-0.9686639003120849
1.252250450090018,-0.9610322921446461
1.254250850170034,-0.9325244636365271
1.25625125025005,-0.8843466465145952
1.258251650330066,-0.8183990056805274
1.260252050410082,-0.7372082616822845
1.262252450490098,-0.6438381091887146
1.264252850570114,-0.5417806062091395
1.26625325065013,-0.4348323831895
1.268253650730146,-0.3269600590941727
1.270254050810162,-0.2221596340826993
1.272254450890178,-0.12431484185788988
1.274254850970194,-0.0370594816301249
1.27625525105021,0.0363513913937033
1.278255651130226,0.09315685203108798
1.280256051210242,0.13118797841314933
1.2822564512902581,0.1489447439456884
1.2842568513702741,0.1456492029162046
1.2862572514502901,0.12127308486589522
1.2882576515303061,0.07653881978976107
1.2902580516103221,0.012893957829856473
1.2922584516903382,-0.06754010998358684
1.2942588517703542,-0.16204331262693206
1.2962592518503702,-0.26739327794075884
1.2982596519303862,-0.37997951382037853
1.3002600520104022,-0.4959313452009493
1.3022604520904182,-0.6112550727981569
1.3042608521704342,-0.7219754927497286
1.3062612522504502,-0.8242767617540896
1.3082616523304662,-0.9146376154973352
1.310262052410482,-0.9899561482770136
1.312262452490498,-1.0476597316783525
1.314262852570514,-1.0857961768243598
1.31626325265053,-1.1031029094425167
1.318263652730546,-1.099051706207469
1.320264052810562,-1.0738674069187288
1.322264452890578,-1.0285199393587163
1.324264852970594,-0.9646899394650552
1.32626525305061,-0.8847091852231466
1.328265653130626,-0.7914779552771187
1.330266053210642,-0.6883622410366821
1.332266453290658,-0.579074455041701
1.334266853370674,-0.4675418632325589
1.33626725345069,-0.35776740383460526
1.338267653530706,-0.2536878253801516
1.340268053610722,-0.1590341713999895
1.342268453690738,-0.07719955615132551
1.3442688537707541,-0.011118917356906066
1.3462692538507701,0.03683499253092193
1.3482696539307861,0.06493569051486142
1.3502700540108021,0.07216414277884797
1.3522704540908181,0.0582448717742427
1.3542708541708341,0.023655711049833494
1.3562712542508502,-0.030389137876050076
1.3582716543308662,-0.1019821461371026
1.3602720544108822,-0.18859007028424463
1.3622724544908982,-0.28714374101658524
1.3642728545709142,-0.39414684579200593
1.3662732546509302,-0.5057998500948372
1.3682736547309462,-0.6181346656298391
1.3702740548109622,-0.7271552928438204
1.3722744548909782,-0.8289794534486605
1.3742748549709942,-0.9199761935336772
1.3762752550510102,-0.9968945806560592
1.3782756551310262,-1.0569789339239513
1.3802760552110422,-1.0980665033525958
1.3822764552910582,-1.118664136764664
1.3842768553710743,-1.1180012171798217
1.3862772554510903,-1.0960569946032783
1.3882776555311063,-1.0535613435760167
1.3902780556111223,-0.9919689196305043
1.3922784556911383,-0.9134076305283401
1.3942788557711543,-0.8206032484310392
1.3962792558511703,-0.7167828347113034
1.3982796559311863,-0.6055603999843192
1.4002800560112023,-0.4908088515156708
1.4022804560912183,-0.3765227661327552
1.4042808561712343,-0.2666768519068751
1.4062812562512503,-0.1650851146620132
1.4082816563312663,-0.07526572038679158
1.4102820564112823,-0.0003163427656309725
1.4122824564912984,0.057195586543860644
1.4142828565713144,0.0953238354081265
1.4162832566513304,0.11281231300017552
1.4182836567313464,0.10913955260666391
1.4202840568113624,0.08453715901628911
1.4222844568913784,0.039981566731789875
1.4242848569713942,-0.022840598897428843
1.4262852570514102,-0.10159233002219253
1.4282856571314262,-0.19336909452297563
1.4302860572114422,-0.29480180764540936
1.4322864572914582,-0.4021762677536901
1.4342868573714742,-0.5115648234313719
1.4362872574514902,-0.618965605684389
1.4382876575315062,-0.7204443908970223
1.4402880576115222,-0.8122740669579367
1.4422884576915382,-0.8910667599167246
1.4442888577715542,-0.9538939386390598
1.4462892578515703,-0.9983902409839309
1.4482896579315863,-1.0228373419295644
1.4502900580116023,-1.0262248913807033
1.4522904580916183,-1.0082863620316591
1.4542908581716343,-0.969508536838127
1.4562912582516503,-0.9111142998531032
1.4582916583316663,-0.8350193403011675
1.4602920584116823,-0.7437643042706545
1.4622924584916983,-0.6404247985303227
1.4642928585717143,-0.5285024358900401
1.4662932586517303,-0.41180078340528503
1.4682936587317463,-0.2942906097631153
1.4702940588117623,-0.17996920742021438
1.4722944588917783,-0.07271877505233698
1.4742948589717944,0.023831120823644525
1.4762952590518104,0.10643213075770513
1.4782956591318264,0.17233219681548972
1.4802960592118424,0.2193730383841891
1.4822964592918584,0.24606659448676904
1.4842968593718744,0.25164771352941046
1.4862972594518904,0.23610122318924198
1.4882976595319064,0.20016242110770321
1.4902980596119224,0.14529096901182348
1.4922984596919384,0.07361911545827682
1.4942988597719544,-0.012123917820770602
1.4962992598519704,-0.10870870623790768
1.4982996599319864,-0.2125201198201948
1.5003000600120024,-0.31968549006844243
1.5023004600920185,-0.4262119040075396
1.5043008601720345,-0.5281277597655987
1.5063012602520505,-0.6216235669924175
1.5083016603320665,-0.7031870021905253
1.5103020604120825,-0.7697274326358297
1.5123024604920985,-0.8186854957944825
1.5143028605721145,-0.8481238507698916
1.5163032606521305,-0.8567958855706461
1.5183036607321465,-0.8441899452274444
1.5203040608121625,-0.8105475133193898
1.5223044608921785,-0.7568547025516379
1.5243048609721945,-0.6848073559437349
1.5263052610522105,-0.5967509954184282
1.5283056611322265,-0.4955977459795252
1.5303060612122426,-0.38472317964414005
1.5323064612922586,-0.26784673493121897
1.5343068613722746,-0.14889994978466314
1.5363072614522904,-0.0318871776964853
1.5383076615323064,0.07925627681136632
1.5403080616123224,0.1808035757310771
1.5423084616923384,0.2693683772433934
1.5443088617723544,0.3420247984499797
1.5463092618523704,0.3964110597389667
1.5483096619323864,0.43081313767617624
1.5503100620124024,0.44422546180455635
1.5523104620924184,0.4363865042897982
1.5543108621724344,0.407788001138247
1.5563112622524504,0.35965747820048843
1.5583116623324664,0.2939147012423209
1.5603120624124824,0.21310359348632565
1.5623124624924984,0.12030203345073917
1.5643128625725145,0.01901272982644056
1.5663132626525305,-0.08696095924454825
1.5683136627325465,-0.19364986156075253
1.5703140628125625,-0.2970597023977533
1.5723144628925785,-0.39331270541524455
1.5743148629725945,-0.47878506464214143
1.5763152630526105,-0.5502354155744617
1.5783156631326265,-0.604919752409083
1.5803160632126425,-0.6406887187804832
1.5823164632926585,-0.6560638240443984
1.5843168633726745,-0.6502898840230364
1.5863172634526905,-0.6233618277231956
1.5883176635327065,-0.5760249199990763
1.5903180636127225,-0.5097483922608256
1.5923184636927386,-0.42667341573914447
1.5943188637727546,-0.3295372611065236
1.5963192638527706,-0.2215763322028828
1.5983196639327866,-0.10641151030716663
1.6003200640128026,0.012080127695544049
1.6023204640928186,0.12990267099762087
1.6043208641728346,0.24308294836261948
1.6063212642528506,0.3478112961237737
1.6083216643328666,0.4405765319276374
1.6103220644128826,0.5182903508099185
1.6123224644928986,0.5783967350587443
1.6143228645729146,0.6189625004263872
1.6163232646529306,0.6387457697711628
1.6183236647329466,0.6372399474548962
1.6203240648129626,0.6146916360652014
1.6223244648929787,0.5720918605062824
1.6243248649729947,0.5111409104786944
1.6263252650530107,0.43418804732295746
1.6283256651330267,0.3441482119995328
1.6303260652130427,0.24439868604848797
1.6323264652930587,0.13865936783148866
1.6343268653730747,0.030860907026526357
1.6363272654530907,-0.07499462935504964
1.6383276655331067,-0.17497562147978732
1.6403280656131227,-0.2653602641012853
1.6423284656931387,-0.3427684977337009
1.6443288657731547,-0.4042818279931226
1.6463292658531707,-0.4475467867498494
1.6483296659331867,-0.4708583684626316
1.6503300660132025,-0.47322048473833467
1.6523304660932185,-0.45438129462620946
1.6543308661732345,-0.4148421585508067
1.6563312662532506,-0.3558398985562046
1.6583316663332666,-0.2793029935488532
1.6603320664132826,-0.18778326196046896
1.6623324664932986,-0.08436545296946554
1.6643328665733146,0.02744204966824748
1.6663332666533306,0.1438315377654717
1.6683336667333466,0.26083089732384945
1.6703340668133626,0.37444435416402067
1.6723344668933786,0.48079405859479907
1.6743348669733946,0.5762574914148706
1.6763352670534106,0.6575958216311415
1.6783356671334266,0.7220686669450256
1.6803360672134426,0.7675311899392422
1.6823364672934586,0.7925100889135233
1.6843368673734747,0.7962557902834251
1.6863372674534907,0.7787689928641656
1.6883376675335067,0.7408006233209723
1.6903380676135227,0.6838252043657663
1.6923384676935387,0.6099885795223585
1.6943388677735547,0.5220318470759215
1.6963392678535707,0.42319419896013855
1.6983396679335867,0.31709810793660376
1.7003400680136027,0.2076209319906536
1.7023404680936187,0.0987574862370234
1.7043408681736347,-0.005521547263772297
1.7063412682536507,-0.10141035387433811
1.7083416683336667,-0.1854028773605696
1.7103420684136827,-0.2544170869967081
1.7123424684936988,-0.3059042168151812
1.7143428685737148,-0.33793910560306295
1.7163432686537308,-0.3492884360293245
1.7183436687337468,-0.339454454534158
1.7203440688137628,-0.30869262256428415
1.7223444688937788,-0.2580025736018098
1.7243448689737948,-0.18909269646716548
1.7263452690538108,-0.10431960005171909
1.7283456691338268,-0.0066046048288620485
1.7303460692138428,0.10066977934525634
1.7323464692938588,0.21377972035145984
1.7343468693738748,0.3287920277998436
1.7363472694538908,0.4417035371378487
1.7383476695339068,0.54858297415139
1.7403480696139229,0.6457102722314447
1.7423484696939389,0.7297084050520459
1.7443488697739549,0.7976630625562517
1.7463492698539709,0.8472259289753696
1.7483496699339869,0.8766979027444601
1.750350070014003,0.8850893090290077
1.752350470094019,0.8721549709506684
1.754350870174035,0.8384028965986274
1.756351270254051,0.7850762739596739
1.758351670334067,0.7141094118575765
1.760352070414083,0.6280591883361583
1.762352470494099,0.5300144359273173
1.7643528705741147,0.42348647515422455
1.7663532706541307,0.3122846757189553
1.7683536707341467,0.20038145543762798
1.7703540708141627,0.09177150130786627
1.7723544708941787,-0.009669798140950314
1.7743548709741948,-0.10032369211214148
1.7763552710542108,-0.17695631117133903
1.7783556711342268,-0.23683327033737978
1.7803560712142428,-0.27781657014643313
1.7823564712942588,-0.29844036155462866
1.7843568713742748,-0.29796288960237804
1.7863572714542908,-0.2763927749793363
1.7883576715343068,-0.2344887020845492
1.7903580716143228,-0.17373252464024352
1.7923584716943388,-0.09627674198989283
1.7943588717743548,-0.004868207504816591
1.7963592718543708,0.09724922715133721
1.7983596719343868,0.2064496816449951
1.8003600720144028,0.31885375599741217
1.8023604720944189,0.4304660246955509
1.8043608721744349,0.5373166431447666
1.8063612722544509,0.6356020479789432
1.8083616723344669,0.7218197648573771
1.8103620724144829,0.7928925462056005
1.8123624724944989,0.8462774395007155
1.814362872574515,0.8800559207573754
1.816363272654531,0.8930018989129278
1.818363672734547,0.884625181057354
1.820364072814563,0.8551888581122307
1.822364472894579,0.8056999948125229
1.824364872974595,0.7378739539307088
1.826365273054611,0.6540736190753864
1.828365673134627,0.5572256699817435
1.830366073214643,0.4507168774625716
1.832366473294659,0.3382740932840257
1.834366873374675,0.22383218807666921
1.836367273454691,0.1113946175090017
1.838367673534707,0.004891558202598345
1.840368073614723,-0.09195935900467611
1.842368473694739,-0.17578478288988608
1.844368873774755,-0.24367517417688567
1.846369273854771,-0.29328790019118844
1.848369673934787,-0.3229302382059336
1.850370074014803,-0.3316193458753233
1.852370474094819,-0.31911707342993884
1.854370874174835,-0.2859383839070333
1.856371274254851,-0.23333308301036448
1.858371674334867,-0.16324150609108884
1.860372074414883,-0.07822573269121558
1.862372474494899,0.018621233614700805
1.864372874574915,0.12378510144225563
1.866373274654931,0.23345485841241287
1.868373674734947,0.34365785395302295
1.870374074814963,0.45040061079716964
1.872374474894979,0.5498103748665347
1.874374874974995,0.6382723870595295
1.8763752750550111,0.7125580120781787
1.878375675135027,0.7699391834508834
1.880376075215043,0.8082851088571614
1.882376475295059,0.8261378085488151
1.884376875375075,0.8227638098092227
1.886377275455091,0.7981801654136564
1.888377675535107,0.7531538740014909
1.890378075615123,0.68917472289751
1.892378475695139,0.6084025158182327
1.894378875775155,0.5135905556893114
1.896379275855171,0.40798809431020205
1.898379675935187,0.2952252060094427
1.900380076015203,0.17918416532130613
1.902380476095219,0.06386188700672057
1.904380876175235,-0.046771696510816474
1.906381276255251,-0.14891430124768962
1.908381676335267,-0.2390660161506155
1.910382076415283,-0.31415331139340785
1.912382476495299,-0.3716379356762069
1.914382876575315,-0.40960684325172586
1.916383276655331,-0.42683996370216243
1.918383676735347,-0.42285341273553123
1.920384076815363,-0.39791661263116207
1.922384476895379,-0.35304271559654865
1.924384876975395,-0.28995266943277254
1.926385277055411,-0.2110141990123922
1.928385677135427,-0.11915786604831635
1.930386077215443,-0.017773181968798624
1.932386477295459,0.08941154437557869
1.934386877375475,0.1984613660155869
1.936387277455491,0.30537418049633536
1.9383876775355071,0.4062225926219937
1.9403880776155231,0.4972931297447778
1.9423884776955391,0.5752178758549756
1.9443888777755551,0.6370938594043012
1.9463892778555711,0.680585963797679
1.9483896779355871,0.7040097134392308
1.9503900780156032,0.706391001421155
1.9523904780956192,0.6875006421239238
1.9543908781756352,0.6478625241919506
1.9563912782556512,0.5887350749419784
1.9583916783356672,0.5120666930943425
1.9603920784156832,0.42042672927030067
1.9623924784956992,0.31691446027687953
1.9643928785757152,0.2050492830924513
1.9663932786557312,0.08864602003359838
1.9683936787357472,-0.028320245762371424
1.9703940788157632,-0.14185501436289155
1.9723944788957792,-0.24808590111763854
1.9743948789757952,-0.343399840947697
1.9763952790558112,-0.4245711023815347
1.9783956791358273,-0.48887557457159825
1.9803960792158433,-0.5341872770063696
1.9823964792958593,-0.5590536716534917
1.9843968793758753,-0.5627471085037283
1.9863972794558913,-0.5452905813089393
1.9883976795359073,-0.5074568807445214
1.9903980796159233,-0.45074117501219063
1.992398479695939,-0.3773079896207455
1.994398879775955,-0.28991446536599214
1.996399279855971,-0.19181261422324103
1.998399679935987,-0.08663403717133278
2.000400080016003,0.021738810489337707
2.002400480096019,0.1293102440111425
2.004400880176035,0.23211298688678647
2.006401280256051,0.3263488017584676
2.008401680336067,0.40852313063676615
2.010402080416083,0.47556897282551563
2.012402480496099,0.5249556103601505
2.014402880576115,0.5547783277660651
2.016403280656131,0.5638259464974813
2.018403680736147,0.5516237806569775
2.020404080816163,0.5184504916565399
2.022404480896179,0.46532824449288995
2.024404880976195,0.3939865144907714
2.026405281056211,0.30680082718557317
2.028405681136227,0.20670860237694827
2.030406081216243,0.0971050848047985
2.0324064812962592,-0.01827695037812216
2.0344068813762752,-0.13549945414788556
2.0364072814562912,-0.25055863504628606
2.0384076815363072,-0.3595268205748875
2.0404080816163233,-0.45869162103495986
2.0424084816963393,-0.5446874639025479
2.0444088817763553,-0.6146148372131831
2.0464092818563713,-0.666143016019215
2.0484096819363873,-0.6975926313361002
2.0504100820164033,-0.7079951553691978
2.0524104820964193,-0.6971271948908452
2.0544108821764353,-0.6655183774274487
2.0564112822564513,-0.6144325507774183
2.0584116823364673,-0.5458229621463789
2.0604120824164833,-0.4622630053390221
2.0624124824964993,-0.36685499030589686
2.0644128825765153,-0.26312016822311546
2.0664132826565313,-0.15487390957994834
2.0684136827365474,-0.046090458921318966
2.0704140828165634,0.059237940708640136
2.0724144828965794,0.1572425610394831
2.0744148829765954,0.2443153243814718
2.0764152830566114,0.31723670191979914
2.0784156831366274,0.3732898418232705
2.0804160832166434,0.41035688250487906
2.0824164832966594,0.42699403772358085
2.0844168833766754,0.42248279253432197
2.0864172834566914,0.3968553957164295
2.0884176835367074,0.35089374523360173
2.0904180836167234,0.28610170621991743
2.0924184836967394,0.20465184252774876
2.0944188837767554,0.10930844964745007
2.0964192838567715,0.003329616679096037
2.0984196839367875,-0.10964821176042855
2.1004200840168035,-0.22573908261620884
2.1024204840968195,-0.34094522417148115
2.1044208841768355,-0.45129869885087526
2.1064212842568515,-0.5530019989320614
2.1084216843368675,-0.6425626025104128
2.1104220844168835,-0.7169167211071458
2.1124224844968995,-0.7735378533561321
2.1144228845769155,-0.8105262976711989
2.1164232846569315,-0.8266764516025786
2.1184236847369475,-0.8215195128226498
2.1204240848169635,-0.7953400684383581
2.1224244848969795,-0.7491659847156906
2.1244248849769956,-0.6847319555252107
2.1264252850570116,-0.6044180013428008
2.1284256851370276,-0.5111650983828528
2.1304260852170436,-0.4083709279409127
2.1324264852970596,-0.29976944055491084
2.1344268853770756,-0.18929850319148403
2.1364272854570916,-0.08096031999656439
2.1384276855371076,0.021320426748056787
2.1404280856171236,0.11383568802555644
2.1424284856971396,0.19322548178099153
2.1444288857771556,0.2565969909482811
2.1464292858571716,0.301627105012346
2.1484296859371876,0.3266447710670091
2.1504300860172036,0.33069023587298096
2.1524304860972197,0.3135490793947829
2.1544308861772357,0.27575983367618273
2.1564312862572517,0.21859491703950118
2.1584316863372677,0.14401555928933246
2.1604320864172837,0.05460231535036614
2.1624324864972992,-0.046536370094054924
2.1644328865773153,-0.15587430653167128
2.1664332866573313,-0.2695925066632765
2.1684336867373473,-0.38371451241365684
2.1704340868173633,-0.4942473020117676
2.1724344868973793,-0.5973227844495463
2.1744348869773953,-0.6893348668125137
2.1764352870574113,-0.7670672368705169
2.1784356871374273,-0.8278073323652837
2.1804360872174433,-0.8694424579694483
2.1824364872974593,-0.8905346435717456
2.1844368873774753,-0.8903715909425665
2.1864372874574913,-0.8689919032530713
2.1884376875375073,-0.8271837033271066
2.1904380876175233,-0.7664566895987543
2.1924384876975394,-0.6889886201061368
2.1944388877775554,-0.5975481211130496
2.1964392878575714,-0.4953965559965081
2.1984396879375874,-0.38617243213441477
2.2004400880176034,-0.2737624423748328
2.2024404880976194,-0.16216371133334373
2.2044408881776354,-0.055342128462843476
2.2064412882576514,0.042908211476643365
2.2084416883376674,0.12909947916644998
2.2104420884176834,0.200173727098499
2.2124424884976994,0.25361127064323075
2.2144428885777154,0.28751999282722324
2.2164432886577314,0.30070240788870223
2.2184436887377474,0.2926981068995999
2.2204440888177635,0.26380008119344805
2.2224444888977795,0.21504434509937198
2.2244448889777955,0.1481732257451504
2.2264452890578115,0.06557362092187263
2.2284456891378275,-0.029807586874718628
2.2304460892178435,-0.13456796253429137
2.2324464892978595,-0.2449700955219081
2.2344468893778755,-0.3570740489598713
2.2364472894578915,-0.46687698665820765
2.2384476895379075,-0.5704550297660583
2.2404480896179235,-0.6641023156998289
2.2424484896979395,-0.7444623311538147
2.2444488897779555,-0.8086468648027345
2.2464492898579715,-0.8543383640590272
2.2484496899379876,-0.8798720684020446
2.2504500900180036,-0.8842950085067036
2.2524504900980196,-0.8673997802669742
2.2544508901780356,-0.8297318967776972
2.2564512902580516,-0.7725704577256196
2.2584516903380676,-0.6978828212616981
2.2604520904180836,-0.6082548847689084
2.2624524904980996,-0.5067994453517634
2.2644528905781156,-0.39704588771995725
2.2664532906581316,-0.28281510888888495
2.2684536907381476,-0.16808411232139575
2.2704540908181636,-0.056845070246373475
2.2724544908981796,0.047036151064944964
2.2744548909781956,0.13995698925090533
2.2764552910582116,0.21870585188145553
2.2784556911382277,0.2805759261119572
2.2804560912182437,0.3234610985953057
2.2824564912982597,0.3459305862847389
2.2844568913782757,0.3472796332381297
2.2864572914582917,0.32755447674651506
2.2884576915383077,0.287550697995584
2.2904580916183237,0.22878501571115056
2.2924584916983397,0.15344152241061126
2.2944588917783557,0.06429426862720505
2.2964592918583717,-0.0353910613071754
2.2984596919383877,-0.1419728973468472
2.3004600920184037,-0.2515628536160197
2.3024604920984197,-0.3601635459024003
2.3044608921784357,-0.463810272559784
2.3064612922584518,-0.5587115377006423
2.3084616923384678,-0.641383436588763
2.3104620924184838,-0.7087731406626956
2.3124624924984998,-0.7583671059262491
2.314462892578516,-0.7882801698400783
2.316463292658532,-0.7973223791528493
2.318463692738548,-0.7850411803176183
2.320464092818564,-0.7517374772798584
2.32246449289858,-0.698454987554088
2.324464892978596,-0.6269432738047902
2.326465293058612,-0.5395957610775765
2.328465693138628,-0.4393649363257375
2.330466093218644,-0.32965773552823335
2.33246649329866,-0.21421482583958384
2.334466893378676,-0.0969780609658151
2.336467293458692,0.01804919290249979
2.338467693538708,0.12694391060487037
2.340468093618724,0.2260024137389763
2.34246849369874,0.3118716022927397
2.344468893778756,0.3816677613820405
2.346469293858772,0.4330787326297967
2.348469693938788,0.4644458292727963
2.350470094018804,0.47482259195807053
2.35247049409882,0.46400830294786055
2.354470894178836,0.43255507100517987
2.356471294258852,0.38174823587740303
2.358471694338868,0.31356078683898614
2.360472094418884,0.23058341068688754
2.3624724944989,0.13593264826541124
2.364472894578916,0.03314041442309312
2.366473294658932,-0.07397120322258471
2.368473694738948,-0.18142542962296315
2.370474094818964,-0.28523177018422297
2.37247449489898,-0.3815274653471389
2.374474894978996,-0.4667144187583356
2.376475295059012,-0.5375867463444896
2.378475695139028,-0.5914444259926973
2.380476095219044,-0.6261890201293736
2.38247649529906,-0.6403980788199519
2.384476895379076,-0.6333755865656765
2.386477295459092,-0.6051766649765026
2.388477695539108,-0.5566056558610234
2.3904780956191236,-0.4891876526624533
2.3924784956991396,-0.4051144891503457
2.3944788957791556,-0.30716709950318083
2.3964792958591716,-0.19861700130564555
2.3984796959391876,-0.08311039286096474
2.4004800960192036,0.03546102763979512
2.4024804960992197,0.1530979429765552
2.4044808961792357,0.26583511134720506
2.4064812962592517,0.36988185281039004
2.4084816963392677,0.46175634894329065
2.4104820964192837,0.538408996190921
2.4124824964992997,0.5973304413170816
2.4144828965793157,0.6366404702273984
2.4164832966593317,0.6551545999849365
2.4184836967393477,0.6524260140293406
2.4204840968193637,0.6287613544384539
2.4224844968993797,0.5852098115682911
2.4244848969793957,0.5235258977383128
2.4264852970594117,0.4461072242570091
2.4284856971394277,0.35590948695510216
2.4304860972194438,0.2563416731160448
2.4324864972994598,0.15114520363992676
2.4344868973794758,0.04426129360643839
2.4364872974594918,-0.0603087680616409
2.438487697539508,-0.15864546818871536
2.440488097619524,-0.24705002108401797
2.44248849769954,-0.32217549801952994
2.444488897779556,-0.38114548725861774
2.446489297859572,-0.4216560793584784
2.448489697939588,-0.44205756341550373
2.450490098019604,-0.4414129389593447
2.45249049809962,-0.41953116984597727
2.454490898179636,-0.3769740016344533
2.456491298259652,-0.31503610083211103
2.458491698339668,-0.23569921985611958
2.460492098419684,-0.14156201207819988
2.4624924984997,-0.03574798427111514
2.464492898579716,0.07820515142182013
2.466493298659732,0.19647080467933878
2.468493698739748,0.31506907181790594
2.470494098819764,0.43000773387403096
2.47249449889978,0.5374236910437693
2.474494898979796,0.6337198211060662
2.476495299059812,0.7156924116284418
2.478495699139828,0.7806446498158532
2.480496099219844,0.8264821479752831
2.48249649929986,0.8517871192199762
2.484496899379876,0.8558685746648859
2.486497299459892,0.8387867631545629
2.488497699539908,0.80135098739982
2.490498099619924,0.7450908739299426
2.49249849969994,0.672202115054199
2.494498899779956,0.5854686057290467
2.496499299859972,0.48816373478342884
2.498499699939988,0.3839343287161713
2.500500100020004,0.2766713610665019
2.50250050010002,0.1703720093814568
2.504500900180036,0.06899794844228879
2.506501300260052,-0.023665098202492185
2.508501700340068,-0.10414157094357468
2.510502100420084,-0.16938929459623292
2.5125025005001,-0.2169073397637829
2.514502900580116,-0.24482470250034433
2.516503300660132,-0.251966659486187
2.518503700740148,-0.2378964471005875
2.520504100820164,-0.20293078728910197
2.52250450090018,-0.14812870998199984
2.524504900980196,-0.07525406818104302
2.526505301060212,0.013286925846162811
2.528505701140228,0.11453092958227179
2.530506101220244,0.22506244401415382
2.53250650130026,0.3411348119059009
2.534506901380276,0.4588029524689213
2.536507301460292,0.5740631283739563
2.538507701540308,0.6829947918256288
2.540508101620324,0.7818994827395436
2.54250850170034,0.8674318565339747
2.544508901780356,0.9367181979718566
2.546509301860372,0.9874582209784584
2.548509701940388,1.018006546699151
2.550510102020404,1.0274309722569996
2.55251050210042,1.015545465199255
2.554510902180436,0.9829167143338575
2.556511302260452,0.9308440048088515
2.558511702340468,0.8613131306666391
2.560512102420484,0.7769259782070694
2.5625125025005002,0.6808082757111875
2.5645129025805162,0.5764987788532454
2.5665133026605322,0.4678238190410554
2.5685137027405482,0.3587616606570588
2.5705141028205643,0.25330147434135225
2.5725145029005803,0.15530192426298073
2.5745149029805963,0.06835438100645613
2.5765153030606123,-0.004344392230315575
2.5785157031406283,-0.06010556816086754
2.5805161032206443,-0.096843582325215
2.5825165033006603,-0.11315008003299376
2.5845169033806763,-0.1083438626710726
2.5865173034606923,-0.08249506328559225
2.5885177035407083,-0.03642269465367548
2.5905181036207243,0.02833434327083567
2.5925185037007403,0.10957176906315269
2.5945189037807563,0.2044980070334857
2.5965193038607723,0.3098330885623265
2.5985197039407884,0.42192486254863193
2.6005201040208044,0.5368783965262056
2.6025205041008204,0.6506939825307968
2.6045209041808364,0.7594088568512207
2.6065213042608524,0.8592376111788886
2.6085217043408684,0.9467063190466891
2.6105221044208844,1.0187756241753076
2.6125225045009004,1.0729484285314164
2.6145229045809164,1.107358363682236
2.6165233046609324,1.1208359100638041
2.618523704740948,1.1129498209298432
2.620524104820964,1.0840223829409372
2.62252450490098,1.0351179725734405
2.624524904980996,0.9680053139136784
2.626525305061012,0.8850947754159059
2.628525705141028,0.7893529278125053
2.630526105221044,0.6841973912208567
2.63252650530106,0.5733756980348853
2.634526905381076,0.4608324646637459
2.636527305461092,0.35056957951020706
2.638527705541108,0.24650436208264456
2.640528105621124,0.1523307200372334
2.64252850570114,0.07138822470063277
2.644528905781156,0.006543744995575973
2.646529305861172,-0.03991016537368469
2.648529705941188,-0.06633652634865717
2.650530106021204,-0.07181195578133914
2.65253050610122,-0.05615940317154833
2.654530906181236,-0.019954432799024258
2.656531306261252,0.03549516642747369
2.658531706341268,0.1081957217904479
2.660532106421284,0.19553832595729964
2.6625325065013,0.29439129077123444
2.664532906581316,0.40121112911650003
2.666533306661332,0.5121681317062683
2.668533706741348,0.6232820884029902
2.670534106821364,0.7305633441620918
2.67253450690138,0.8301541906326776
2.674534906981396,0.9184655825529895
2.676535307061412,0.9923043337660098
2.678535707141428,1.0489862850785705
2.680536107221444,1.0864314333403462
2.68253650730146,1.1032376504062125
2.684536907381476,1.0987303794120036
2.686537307461492,1.0729865471485542
2.6885377075415082,1.0268318450906444
2.6905381076215242,0.9618114754422635
2.6925385077015402,0.8801353989493828
2.6945389077815562,0.7846000248791424
2.6965393078615723,0.6784891184449969
2.6985397079415883,0.5654574374832952
2.7005401080216043,0.4494012222550986
2.7025405081016203,0.334320128167782
2.7045409081816363,0.22417549446986834
2.7065413082616523,0.12274997182440589
2.7085417083416683,0.03351348350764011
2.7105421084216843,-0.04049972948174979
2.7125425085017003,-0.09679862192782873
2.7145429085817163,-0.13352360627877985
2.7165433086617323,-0.14951243493744554
2.7185437087417483,-0.14434136811839982
2.7205441088217643,-0.11834016829972616
2.7225445089017803,-0.07258038987370602
2.7245449089817964,-0.008837379009221102
2.7265453090618124,0.07047266956069992
2.7285457091418284,0.1623783681389422
2.7305461092218444,0.26345846844635
2.7325465093018604,0.3699631378411009
2.7345469093818764,0.4779468813876174
2.7365473094618924,0.5834083990618644
2.7385477095419084,0.6824324216010483
2.7405481096219244,0.7713284983830883
2.7425485097019404,0.8467618187398256
2.7445489097819564,0.9058714304398747
2.7465493098619724,0.9463716657163987
2.7485497099419884,0.9666331803332264
2.7505501100220044,0.9657407336888594
2.7525505101020205,0.9435256622466712
2.7545509101820365,0.9005718954385764
2.7565513102620525,0.8381953008339847
2.7585517103420685,0.7583970905668324
2.7605521104220845,0.6637929402724408
2.7625525105021005,0.5575203325254869
2.7645529105821165,0.4431274084857197
2.7665533106621325,0.32444726680008257
2.7685537107421485,0.20546216455350952
2.7705541108221645,0.09016243292806152
2.7725545109021805,-0.017594892461388303
2.7745549109821965,-0.11422271647526178
2.7765553110622125,-0.19653096196533287
2.7785557111422285,-0.26183957632792493
2.7805561112222446,-0.30807346219383114
2.7825565113022606,-0.3338359679559582
2.7845569113822766,-0.338458333668177
2.7865573114622926,-0.32202333998140265
2.7885577115423086,-0.2853623220181738
2.7905581116223246,-0.23002565402397146
2.7925585117023406,-0.15822775081967405
2.7945589117823566,-0.07276853519489127
2.7965593118623726,0.023065845579403728
2.7985597119423886,0.12561953553677993
2.8005601120224046,0.23099658881110152
2.8025605121024206,0.3351990977871477
2.8045609121824366,0.43426893538319417
2.8065613122624526,0.5244280881577452
2.8085617123424687,0.6022126068742369
2.8105621124224847,0.6645954273515134
2.8125625125025007,0.709093708860906
2.8145629125825167,0.7338568860228851
2.8165633126625327,0.7377323136625275
2.8185637127425487,0.7203061781800952
2.8205641128225647,0.6819182255383937
2.8225645129025807,0.6236497838978161
2.8245649129825967,0.5472855053575879
2.8265653130626127,0.45525018264686345
2.8285657131426287,0.3505228799432692
2.8305661132226447,0.23653142097595398
2.8325665133026607,0.11703097369995444
2.8345669133826767,-0.00402896555949539
2.8365673134626928,-0.12264447447585833
2.8385677135427088,-0.23489903553121114
2.8405681136227248,-0.33710226885194333
2.8425685137027408,-0.42592065044621596
2.844568913782757,-0.49849558325373244
2.8465693138627723,-0.5525446366301761
2.8485697139427884,-0.5864423663933428
2.8505701140228044,-0.5992778512153931
2.8525705141028204,-0.5908869063100356
2.8545709141828364,-0.5618578327907972
2.8565713142628524,-0.5135104989627897
2.8585717143428684,-0.44784949491692094
2.8605721144228844,-0.3674930206282333
2.8625725145029004,-0.27558002775582063
2.8645729145829164,-0.1756589060226872
2.8665733146629324,-0.07156165910732049
2.8685737147429484,0.032731970774869834
2.8705741148229644,0.13323561420699115
2.8725745149029804,0.22609762087139706
2.8745749149829964,0.3077376315357633
2.8765753150630125,0.37497353564560054
2.8785757151430285,0.42513431517407824
2.8805761152230445,0.4561547755659997
2.8825765153030605,0.4666488065273985
2.8845769153830765,0.4559585763064566
2.8865773154630925,0.42417791601963106
2.8885777155431085,0.37214906527203606
2.8905781156231245,0.3014328943870109
2.8925785157031405,0.2142536585389046
2.8945789157831565,0.11342024166319803
2.8965793158631725,0.0022266812111391143
2.8985797159431885,-0.11566450090388455
2.9005801160232045,-0.23635202647963913
2.9025805161032205,-0.35583405081858566
2.9045809161832365,-0.4701499167656811
2.9065813162632526,-0.5755204492989747
2.9085817163432686,-0.668481818703786
2.9105821164232846,-0.7460082282882801
2.9125825165033006,-0.8056190786523765
2.9145829165833166,-0.8454668106671277
2.9165833166633326,-0.8644023140610688
2.9185837167433486,-0.8620155835765959
2.9205841168233646,-0.8386501818764589
2.9225845169033806,-0.7953909966593786
2.9245849169833966,-0.7340257258873122
2.9265853170634126,-0.6569814560927363
2.9285857171434286,-0.5672385814263771
2.9305861172234446,-0.46822511414152995
2.9325865173034606,-0.36369513213131427
2.9345869173834767,-0.2575956713121214
2.9365873174634927,-0.1539267801568075
2.9385877175435087,-0.056599696012034295
2.9405881176235247,0.03070183060273679
2.9425885177035407,0.10465214908024911
2.9445889177835567,0.16240163029696014
2.9465893178635727,0.20167771755521097
2.9485897179435887,0.22086552567022238
2.9505901180236047,0.21906513178177156
2.9525905181036207,0.1961235275074289
2.9545909181836367,0.15264010004701428
2.9565913182636527,0.08994544797228171
2.9585917183436687,0.010054282444889595
2.9605921184236847,-0.08440591699127381
2.9625925185037008,-0.19028796364827538
2.9645929185837168,-0.30403644392400225
2.9665933186637328,-0.42181366572222867
2.9685937187437488,-0.5396356115146124
2.970594118823765,-0.6535130779342078
2.972594518903781,-0.7595929999822819
2.974594918983797,-0.8542949513867271
2.976595319063813,-0.9344379836058242
2.978595719143829,-0.9973533083657078
2.980596119223845,-1.0409788303196437
2.982596519303861,-1.063932179642002
2.984596919383877,-1.0655596563239889
2.986597319463893,-1.0459593516183847
2.988597719543909,-1.0059776272326195
2.990598119623925,-0.9471790770608505
2.992598519703941,-0.8717910360146546
2.994598919783957,-0.7826246025527196
2.996599319863973,-0.6829749738561988
2.998599719943989,-0.5765046257477099
3.000600120024005,-0.4671134774280371
3.002600520104021,-0.3588006423574773
3.004600920184037,-0.2555226647924621
3.006601320264053,-0.16105326603491255
3.008601720344069,-0.07884957094784423
3.010602120424085,-0.011929555632235689
3.012602520504101,0.03723494051392917
3.014602920584117,0.06680584672976114
3.016603320664133,0.07564403116401114
3.018603720744149,0.06334969986482575
3.020604120824165,0.030276592750546838
3.022604520904181,-0.022480526548613544
3.024604920984197,-0.09312464363278666
3.026605321064213,-0.17922015496952737
3.028605721144229,-0.2777791620903235
3.030606121224245,-0.3853673401211881
3.032606521304261,-0.4982256287145371
3.034606921384277,-0.61240343270914
3.036607321464293,-0.7238986119441261
3.038607721544309,-0.8287992990475936
3.040608121624325,-0.9234225192371059
3.042608521704341,-1.0044446995051657
3.044608921784357,-1.069019441998575
3.046609321864373,-1.1148783877535897
3.048609721944389,-1.1404115962193304
3.050610122024405,-1.1447245919547153
3.052610522104421,-1.1276700567905378
3.054610922184437,-1.0898530443033425
3.056611322264453,-1.032609531806889
3.058611722344469,-0.9579590699751921
3.060612122424485,-0.8685332081811349
3.062612522504501,-0.7674822321339791
3.064612922584517,-0.6583635190030677
3.066613322664533,-0.5450154666835143
3.068613722744549,-0.4314214651074775
3.070614122824565,-0.3215687304093996
3.0726145229045807,-0.21930700481246795
3.0746149229845967,-0.12821212986154468
3.0766153230646127,-0.05145932791850827
3.0786157231446287,0.008289317222723802
3.0806161232246447,0.048979192955083684
3.0826165233046607,0.06923596059798592
3.0846169233846767,0.06841424815590436
3.0866173234646928,0.04662050744289503
3.0886177235447088,0.004709225526249972
3.0906181236247248,-0.055747375244357356
3.0926185237047408,-0.13251507480064678
3.094618923784757,-0.22277685519156748
3.096619323864773,-0.32323275587569666
3.098619723944789,-0.4302168456325608
3.100620124024805,-0.539827165648213
3.102620524104821,-0.6480640386363663
3.104620924184837,-0.750971842366835
3.106621324264853,-0.8447792231953202
3.108621724344869,-0.9260327804738128
3.110622124424885,-0.9917194841106727
3.112622524504901,-1.039373486841075
3.114622924584917,-1.0671635458148714
3.116623324664933,-1.0739579553065488
3.118623724744949,-1.059364689349335
3.120624124824965,-1.0237453316462497
3.122624524904981,-0.9682022990797223
3.124624924984997,-0.8945398116060964
3.126625325065013,-0.8051999917393441
3.128625725145029,-0.7031763582261614
3.130626125225045,-0.5919077796557141
3.132626525305061,-0.47515664623988235
3.134626925385077,-0.3568755773010147
3.136627325465093,-0.24106738829525676
3.138627725545109,-0.1316432800776384
3.140628125625125,-0.032284276118457966
3.142628525705141,0.05368918172620038
3.144628925785157,0.12343485742352003
3.146629325865173,0.17468939640578568
3.148629725945189,0.20584848474955766
3.150630126025205,0.21602365109293506
3.152630526105221,0.20507369826475969
3.154630926185237,0.17360965071357237
3.156631326265253,0.122973042414847
3.158631726345269,0.05518831473873689
3.160632126425285,-0.027108988705297682
3.162632526505301,-0.12076568548440605
3.164632926585317,-0.2222227636949633
3.166633326665333,-0.3276415747545576
3.168633726745349,-0.4330399373919026
3.170634126825365,-0.5344333293437302
3.172634526905381,-0.6279761629609383
3.174634926985397,-0.7100981379522745
3.176635327065413,-0.7776308389579181
3.178635727145429,-0.8279200913647365
3.180636127225445,-0.8589200934971887
3.182636527305461,-0.8692659891564558
3.184636927385477,-0.8583223085456005
3.186637327465493,-0.8262055608343835
3.188637727545509,-0.7737801776730644
3.190638127625525,-0.7026279513969041
3.192638527705541,-0.6149920510012008
3.194638927785557,-0.5136975999208171
3.196639327865573,-0.4020516302889731
3.198639727945589,-0.2837259592397224
3.200640128025605,-0.16262713805479792
3.202640528105621,-0.042758083088882626
3.204640928185637,0.07192370779819357
3.206641328265653,0.17764632856547438
3.208641728345669,0.2709570604015816
3.210642128425685,0.34884465467048653
3.212642528505701,0.408845969751689
3.214642928585717,0.4491331826258113
3.216643328665733,0.46857848448096573
3.218643728745749,0.4667939675733671
3.2206441288257652,0.444145289788665
3.2226445289057812,0.4017386326592524
3.2246449289857972,0.34138141506305686
3.2266453290658133,0.265518154918447
3.2286457291458293,0.17714375193587403
3.2306461292258453,0.07969726467664083
3.2326465293058613,-0.023060053556691357
3.2346469293858773,-0.12717813761143854
3.2366473294658933,-0.22865818509405733
3.2386477295459093,-0.323594458481409
3.2406481296259253,-0.40831278929593084
3.2426485297059413,-0.47950087578409617
3.2446489297859573,-0.5343257563726718
3.2466493298659733,-0.570534295662851
3.2486497299459893,-0.5865331217516756
3.2506501300260053,-0.5814451819073722
3.2526505301060213,-0.5551409122621402
3.2546509301860373,-0.5082429168556719
3.2566513302660534,-0.44210399018136354
3.2586517303460694,-0.3587592620837145
3.2606521304260854,-0.26085416094952196
3.2626525305061014,-0.1515507481262554
3.2646529305861174,-0.03441574301664824
3.2666533306661334,0.08670579282578605
3.2686537307461494,0.20782663603596785
3.2706541308261654,0.32495862005487
3.2726545309061814,0.43425388731458126
3.2746549309861974,0.5321411690901868
3.2766553310662134,0.6154522633355425
3.2786557311462294,0.6815342281996762
3.2806561312262454,0.7283433151520214
3.2826565313062614,0.7545173127853873
3.2846569313862775,0.759423737483967
3.2866573314662935,0.7431821631213578
3.2886577315463095,0.7066598984568904
3.2906581316263255,0.6514411654462666
3.2926585317063415,0.579770870800231
3.2946589317863575,0.49447496353087506
3.2966593318663735,0.3988602010090401
3.2986597319463895,0.29659687581098493
3.300660132026405,0.1915886594957251
3.302660532106421,0.08783417602559712
3.304660932186437,-0.01071478935912834
3.306661332266453,-0.10029342076259246
3.308661732346469,-0.17745737555138769
3.310662132426485,-0.2392049302151184
3.312662532506501,-0.28308343934179064
3.314662932586517,-0.3072763348179154
3.316663332666533,-0.3106675820105891
3.318663732746549,-0.29288130860522715
3.320664132826565,-0.2542952016446831
3.322664532906581,-0.19602719796099494
3.324664932986597,-0.11989593966326706
3.326665333066613,-0.028356396102439674
3.328665733146629,0.07558706617552424
3.330666133226645,0.18848708474118533
3.332666533306661,0.3065754030564608
3.334666933386677,0.4258963454924636
3.336667333466693,0.542446935306316
3.338667733546709,0.6523186898686738
3.340668133626725,0.7518360679923302
3.342668533706741,0.8376866628603179
3.3446689337867572,0.9070385265846317
3.3466693338667732,0.957640468476584
3.3486697339467892,0.9879017725153061
3.3506701340268052,0.9969485088760066
3.3526705341068213,0.9846544438779272
3.3546709341868373,0.9516454529338396
3.3566713342668533,0.8992772801266694
3.3586717343468693,0.8295874326242145
3.3606721344268853,0.7452229147944333
3.3626725345069013,0.6493463631155766
3.3646729345869173,0.5455239084430068
3.3666733346669333,0.43759873976995445
3.3686737347469493,0.32955485035292675
3.3706741348269653,0.2253757950057454
3.3726745349069813,0.12890346416752335
3.3746749349869973,0.043701879756264383
3.3766753350670133,-0.027069160151960814
3.3786757351470293,-0.08076610981668753
3.3806761352270454,-0.11535540723606491
3.3826765353070614,-0.12948558663811494
3.3846769353870774,-0.12253521640579201
3.3866773354670934,-0.09463496351944084
3.3886777355471094,-0.046663002547301546
3.3906781356271254,0.0197860681255545
3.3926785357071414,0.10245770124542053
3.3946789357871574,0.1985172653763519
3.3966793358671734,0.3046504689622761
3.3986797359471894,0.41718078478441456
3.4006801360272054,0.5321997133463064
3.4026805361072214,0.6457052687109978
3.4046809361872374,0.7537437789140496
3.4066813362672534,0.8525499756082395
3.4086817363472695,0.9386804082244471
3.4106821364272855,1.0091354545094655
3.4126825365073015,1.0614656034412775
3.4146829365873175,1.0938582439030526
3.4166833366673335,1.105201883365425
3.4186837367473495,1.0951255206983583
3.4206841368273655,1.0640117777620044
3.4226845369073815,1.0129833244046131
3.4246849369873975,0.9438630779670738
3.4266853370674135,0.8591095878149224
3.4286857371474295,0.7617298948517379
3.4306861372274455,0.6551729542457534
3.4326865373074615,0.5432073984336103
3.4346869373874775,0.42978797243956446
3.4366873374674936,0.3189153749969375
3.4386877375475096,0.21449447265413552
3.4406881376275256,0.12019591170790528
3.4426885377075416,0.03932603238830468
3.4446889377875576,-0.025290304509173633
3.4466893378675736,-0.07140982596217887
3.4486897379475896,-0.09745034222659599
3.4506901380276056,-0.10254681221649692
3.4526905381076216,-0.08658199182219611
3.4546909381876376,-0.05019057900159085
3.4566913382676536,0.005263291255030611
3.4586917383476696,0.07773440451542302
3.4606921384276856,0.1645689632743047
3.4626925385077016,0.2625986528541402
3.4646929385877177,0.3682529431744691
3.4666933386677337,0.4776856464535797
3.4686937387477497,0.5869112456806527
3.4706941388277657,0.6919461624242728
3.4726945389077817,0.7889499574932857
3.4746949389877977,0.8743614603464123
3.4766953390678137,0.9450250028691349
3.4786957391478297,0.9983022838337319
3.4806961392278457,1.0321658996011318
3.4826965393078617,1.0452712263644413
3.4846969393878777,1.0370041064469186
3.4866973394678937,1.0075026486621128
3.4886977395479097,0.9576523701315001
3.4906981396279257,0.889054851723432
3.4926985397079418,0.8039710179443673
3.4946989397879578,0.7052410514125587
3.4966993398679738,0.5961837801063801
3.4986997399479898,0.4804791030556861
3.500700140028006,0.36203762125585104
3.502700540108022,0.24486209402577946
3.504700940188038,0.13290563073401593
3.506701340268054,0.029931643513990747
3.50870174034807,-0.060619475819755075
3.510702140428086,-0.1357522297461764
3.512702540508102,-0.19302212074757802
3.514702940588118,-0.23062222842102642
3.516703340668134,-0.2474471897443679
3.51870374074815,-0.24313231507415994
3.520704140828166,-0.21806645363374855
3.522704540908182,-0.17337815255840272
3.524704940988198,-0.11089560003145171
3.526705341068214,-0.0330817721277466
3.5287057411482294,0.05705291824724765
3.5307061412282454,0.15605737461687202
3.5327065413082614,0.2601621890775956
3.5347069413882775,0.36541329648775567
3.5367073414682935,0.46781217402717756
3.5387077415483095,0.5634576174895175
3.5407081416283255,0.6486840697886279
3.5427085417083415,0.7201915993493334
3.5447089417883575,0.7751629219770143
3.5467093418683735,0.811363318974569
3.5487097419483895,0.827219910425659
3.5507101420284055,0.8218774742080971
3.5527105421084215,0.7952288325115731
3.5547109421884375,0.7479187289518607
3.5567113422684535,0.6813210588568022
3.5587117423484695,0.5974902596528078
3.5607121424284855,0.49908858403694056
3.5627125425085016,0.38929183332410405
3.5647129425885176,0.27167689172273946
3.5667133426685336,0.15009504725980022
3.5687137427485496,0.028535588791831087
3.5707141428285656,-0.08901548684951685
3.5727145429085816,-0.198716650234414
3.5747149429885976,-0.2970068940547349
3.5767153430686136,-0.3807318454818225
3.5787157431486296,-0.4472554668110196
3.5807161432286456,-0.49455338578779856
3.5827165433086616,-0.5212845480479413
3.5847169433886776,-0.5268386523606593
3.5867173434686936,-0.5113576876123822
3.5887177435487096,-0.47573080829374376
3.5907181436287257,-0.4215627301263045
3.5927185437087417,-0.3511167659020719
3.5947189437887577,-0.26723452035063666
3.5967193438687737,-0.17323509004437446
3.5987197439487897,-0.07279734068617746
3.6007201440288057,0.03017056614427636
3.6027205441088217,0.13166977283510303
3.6047209441888377,0.22775254022347874
3.6067213442688537,0.3146622508337932
3.6087217443488697,0.38896663918231944
3.6107221444288857,0.4476795274887864
3.6127225445089017,0.4883667524982464
3.6147229445889177,0.5092325293787251
3.6167233446689337,0.5091831919622902
3.6187237447489498,0.4878660503712723
3.6207241448289658,0.4456819889019671
3.6227245449089818,0.3837713576736597
3.6247249449889978,0.303973658009817
3.626725345069014,0.2087624502587134
3.62872574514903,0.10115779086829076
3.630726145229046,-0.01538069811505223
3.632726545309062,-0.137076337574365
3.634726945389078,-0.2599691362476805
3.636727345469094,-0.3800560322089871
3.63872774554911,-0.49343266082584825
3.640728145629126,-0.5964316250182186
3.642728545709142,-0.6857523675994931
3.644728945789158,-0.758578043100146
3.646729345869174,-0.812675247207803
3.64872974594919,-0.8464730694773256
3.650730146029206,-0.8591186677400917
3.652730546109222,-0.8505073947040107
3.654730946189238,-0.8212864090966258
3.656731346269254,-0.7728316434016762
3.65873174634927,-0.707198944472001
3.660732146429286,-0.6270511186049573
3.662732546509302,-0.5355634666040096
3.664732946589318,-0.43631115665642395
3.666733346669334,-0.3331424265183144
3.66873374674935,-0.23004210870221656
3.670734146829366,-0.13099031531147587
3.672734546909382,-0.039821290705915
3.674734946989398,0.03991256576472463
3.676735347069414,0.10506668794853496
3.67873574714943,0.1530158769987553
3.680736147229446,0.18174742864647925
3.682736547309462,0.1899325532160806
3.684736947389478,0.17697355725828223
3.686737347469494,0.1430251146749139
3.68873774754951,0.08898887346883089
3.690738147629526,0.01648158922804832
3.692738547709542,-0.07222208534382968
3.694738947789558,-0.17427012735822428
3.696739347869574,-0.2863341333135715
3.69873974794959,-0.40472719230036497
3.700740148029606,-0.5255344654809396
3.702740548109622,-0.6447518441797737
3.704740948189638,-0.758427772616879
3.706741348269654,-0.8628032091626183
3.70874174834967,-0.9544447659627642
3.710742148429686,-1.0303663085372916
3.712742548509702,-1.0881347059315332
3.714742948589718,-1.1259559836958952
3.716743348669734,-1.1427388264868341
3.71874374874975,-1.1381331798024987
3.720744148829766,-1.11254258284364
3.722744548909782,-1.0671097954492779
3.724744948989798,-1.0036762285044798
3.726745349069814,-0.9247166156124922
3.72874574914983,-0.8332512412636366
3.730746149229846,-0.7327388361226754
3.732746549309862,-0.6269539352055911
3.734746949389878,-0.5198530453468708
3.736747349469894,-0.41543436495162245
3.73874774954991,-0.31759602753175264
3.740748149629926,-0.22999789284138547
3.742748549709942,-0.15593178370080713
3.744748949789958,-0.09820476728569072
3.746749349869974,-0.05903961736698987
3.74874974994999,-0.039995985099922415
3.7507501500300062,-0.04191507205674205
3.7527505501100222,-0.06488976628675147
3.7547509501900382,-0.10826129978631988
3.756751350270054,-0.17064254585217975
3.75875175035007,-0.249967130683621
3.760752150430086,-0.34356261875052013
3.762752550510102,-0.44824517827935473
3.764752950590118,-0.5604323719606695
3.766753350670134,-0.6762700756302618
3.76875375075015,-0.7917690269856337
3.770754150830166,-0.9029461651139412
3.772754550910182,-1.0059657518226541
3.774754950990198,-1.097275273496336
3.776755351070214,-1.1737313071793274
3.77875575115023,-1.232710890246776
3.780756151230246,-1.2722044467745128
3.782756551310262,-1.2908869773409686
3.784756951390278,-1.2881649893300229
3.786757351470294,-1.2641975045508773
3.78875775155031,-1.2198903996808859
3.790758151630326,-1.1568642801117273
3.792758551710342,-1.077397025745238
3.794758951790358,-0.9843430449015178
3.796759351870374,-0.8810320979572931
3.79875975195039,-0.7711512763735151
3.800760152030406,-0.6586143197367802
3.802760552110422,-0.5474229021759142
3.804760952190438,-0.44152480411585426
3.806761352270454,-0.34467399571362206
3.80876175235047,-0.2602975905711705
3.810762152430486,-0.19137438483934732
3.812762552510502,-0.14032928624473817
3.814762952590518,-0.1089473744376615
3.816763352670534,-0.09831063833230669
3.81876375275055,-0.10875963244529135
3.820764152830566,-0.139881411118307
3.822764552910582,-0.19052416823144486
3.824764952990598,-0.25883806358078043
3.826765353070614,-0.34234078904723464
3.82876575315063,-0.43800555091448024
3.830766153230646,-0.5423683502729434
3.832766553310662,-0.6516507595294551
3.834766953390678,-0.7618938438653382
3.836767353470694,-0.8690984815123693
3.83876775355071,-0.9693671099438067
3.840768153630726,-1.05904187454329
3.842768553710742,-1.1348342838087715
3.844768953790758,-1.1939417761534437
3.846769353870774,-1.2341470672131747
3.84876975395079,-1.2538967568223636
3.850770154030806,-1.2523564098486777
3.852770554110822,-1.2294401588350878
3.854770954190838,-1.185813779334468
3.856771354270854,-1.122871128939676
3.85877175435087,-1.0426847849923297
3.860772154430886,-0.9479326303423354
3.862772554510902,-0.8418029889219494
3.864772954590918,-0.7278816730843476
3.866773354670934,-0.6100249456966007
3.86877375475095,-0.49222289915239614
3.870774154830966,-0.3784580930901728
3.872774554910982,-0.2725644606318567
3.874774954990998,-0.17809148343995612
3.8767753550710142,-0.09817844916650298
3.8787757551510302,-0.03544324754947176
3.8807761552310462,0.008110353831721373
3.8827765553110622,0.031163668043035497
3.8847769553910783,0.03312976679713037
3.8867773554710943,0.014174223733287028
3.8887777555511103,-0.024790812142624297
3.8907781556311263,-0.08213900280693981
3.8927785557111423,-0.155587519579046
3.8947789557911583,-0.2422780086687724
3.8967793558711743,-0.33887795450372876
3.8987797559511903,-0.4416988485403945
3.9007801560312063,-0.5468269756812301
3.9027805561112223,-0.6502621832573618
3.9047809561912383,-0.748059714636254
3.9067813562712543,-0.8364700809044118
3.9087817563512703,-0.9120720136046342
3.9107821564312863,-0.9718937867118806
3.9127825565113024,-1.013518608221292
3.9147829565913184,-1.035170346288648
3.9167833566713344,-1.0357765517993878
3.9187837567513504,-1.0150065438481495
3.9207841568313664,-0.9732832083717522
3.9227845569113824,-0.9117680917742248
3.9247849569913984,-0.832320317797963
3.9267853570714144,-0.7374307835891016
3.9287857571514304,-0.6301339670012327
3.9307861572314464,-0.5139004706306707
3.9327865573114624,-0.3925141107593191
3.9347869573914784,-0.2699379071036702
3.9367873574714944,-0.150173722619507
3.9387877575515104,-0.0371205276512826
3.9407881576315265,0.06556368853239403
3.9427885577115425,0.15459146503805613
3.9447889577915585,0.22716228439820665
3.9467893578715745,0.28106172969314724
3.9487897579515905,0.31473986967739664
3.9507901580316065,0.32736609399717465
3.9527905581116225,0.31885845518524725
3.9547909581916385,0.2898864775902009
3.9567913582716545,0.2418473337194938
3.9587917583516705,0.17681623232482338
3.9607921584316865,0.09747277648490796
3.9627925585117025,0.007005901555402205
3.9647929585917185,-0.09099923802258483
3.9667933586717345,-0.1926884243378984
3.9687937587517506,-0.29407506767275843
3.9707941588317666,-0.39118158988388807
3.9727945589117826,-0.4801804888988109
3.9747949589917986,-0.5575300850246658
3.9767953590718146,-0.6201001382425058
3.9787957591518306,-0.6652828846277765
3.9807961592318466,-0.6910855567785359
3.9827965593118626,-0.6962011093328281
3.984796959391878,-0.6800546430600822
3.986797359471894,-0.6428238822448443
3.98879775955191,-0.5854329796229931
3.990798159631926,-0.5095198683918953
3.992798559711942,-0.4173783182981837
3.994798959791958,-0.311876749284683
3.996799359871974,-0.19635667988160774
3.99879975995199,-0.07451440926421105
4.000800160032006,0.04972987390824309
4.002800560112022,0.17237091716715178
4.004800960192038,0.28946024452161656
4.006801360272054,0.3972459846198209
4.00880176035207,0.4923057313557356
4.010802160432086,0.5716677284196751
4.012802560512102,0.6329160830862265
4.014802960592118,0.6742762805313604
4.016803360672134,0.6946779681118088
4.01880376075215,0.6937927845845702
4.020804160832166,0.6720458936420488
4.022804560912182,0.630600813047775
4.024804960992198,0.5713180770516005
4.026805361072214,0.4966891971021128
4.02880576115223,0.40974826129315756
4.030806161232246,0.31396430545626397
4.032806561312262,0.21311827025644997
4.034806961392278,0.11116890491505083
4.036807361472294,0.01211236991086112
4.03880776155231,-0.08015948568417067
4.040808161632326,-0.16199714960687356
4.042808561712342,-0.23012288294557107
4.044808961792358,-0.2817469806121875
4.046809361872374,-0.3146667354878165
4.04880976195239,-0.32734459896140344
4.050810162032406,-0.31896276785352506
4.052810562112422,-0.28945226315764594
4.054810962192438,-0.23949547003198737
4.056811362272454,-0.17050204899888238
4.05881176235247,-0.08455907202319796
4.060812162432486,0.01564284939738869
4.0628125625125024,0.12690482616352733
4.0648129625925185,0.24563296750447827
4.0668133626725345,0.36796565647637297
4.0688137627525505,0.48991031445701516
4.0708141628325665,0.6074848077791588
4.0728145629125825,0.7168584851282525
4.0748149629925985,0.8144878474158994
4.0768153630726145,0.897242042063136
4.0788157631526305,0.9625137342464387
4.0808161632326465,1.008311425894222
4.0828165633126625,1.033329950706042
4.0848169633926785,1.0369966469002145
4.0868173634726945,1.0194915713675459
4.0888177635527105,0.9817410388714978
4.0908181636327265,0.9253847152853578
4.0928185637127426,0.85271743109179
4.094818963792759,0.7666077772743676
4.096819363872775,0.670396368553827
4.098819763952791,0.5677773795032086
4.100820164032807,0.4626675518787068
4.102820564112823,0.35906731551817317
4.104820964192839,0.2609189446511014
4.106821364272855,0.17196677652747158
4.108821764352871,0.09562444618460603
4.110822164432887,0.034853842521625045
4.112822564512903,-0.007939924548616306
4.114822964592919,-0.030993823526447528
4.116823364672935,-0.03324944433394822
4.118823764752951,-0.01439056838685171
4.120824164832967,0.025145565756205468
4.122824564912983,0.08418370043372103
4.124824964992999,0.16085215350793086
4.126825365073015,0.252649095495071
4.128825765153031,0.3565311603771383
4.130826165233047,0.4690212497751172
4.132826565313063,0.5863317099576034
4.134826965393079,0.7044985163504432
4.136827365473095,0.819521710111516
4.138827765553111,0.9275071097622632
4.140828165633127,1.0248042756807538
4.142828565713143,1.1081358380571236
4.144828965793159,1.1747136049877014
4.146829365873175,1.2223373358906484
4.148829765953191,1.24947267976008
4.150830166033207,1.2553055161655995
4.152830566113223,1.2397707731817083
4.154830966193239,1.2035547009592655
4.156831366273255,1.1480705203729098
4.158831766353271,1.0754083097555183
4.160832166433287,0.98826090572258
4.162832566513303,0.8898284441413076
4.164832966593319,0.7837049242836193
4.166833366673335,0.6737508162937055
4.168833766753351,0.5639562267200823
4.170834166833367,0.4582994714802629
4.172834566913383,0.36060606838459097
4.174834966993399,0.2744131464762519
4.176835367073415,0.2028440774740335
4.178835767153431,0.14849777233635003
4.180836167233447,0.11335656623807622
4.182836567313463,0.09871595648473719
4.184836967393479,0.10513868342810057
4.186837367473495,0.1324347817396495
4.188837767553511,0.1796683090181786
4.190838167633527,0.2451905132722002
4.192838567713543,0.32669826383350536
4.194838967793559,0.42131567493101374
4.196839367873575,0.5256960292142259
4.198839767953591,0.6361403890923878
4.200840168033607,0.7487286923449352
4.202840568113623,0.8594586860203453
4.204840968193639,0.9643877748539657
4.206841368273655,1.0597727571454645
4.208841768353671,1.1422024959035029
4.210842168433687,1.2087188234368669
4.212842568513703,1.256921394572114
4.214842968593719,1.2850527725330918
4.216843368673735,1.2920607320637294
4.218843768753751,1.2776355717877497
4.220844168833767,1.2422211134618442
4.222844568913783,1.1869989983051712
4.224844968993799,1.113846836929325
4.226845369073815,1.0252716960112072
4.228845769153831,0.9243212789074836
4.230846169233847,0.8144759479273109
4.232846569313863,0.6995254149443235
4.234846969393879,0.5834344703761503
4.236847369473895,0.47020250903659566
4.238847769553911,0.3637218312006095
4.240848169633927,0.2676397406283817
4.242848569713943,0.18522932673140802
4.244848969793959,0.11927351030018518
4.246849369873975,0.0719664621570108
4.248849769953991,0.0448358884068899
4.250850170034007,0.0386889364545851
4.252850570114023,0.05358363884417755
4.254850970194039,0.08882690692611017
4.256851370274055,0.14299914544006387
4.258851770354071,0.2140046156664828
4.260852170434087,0.2991457622789125
4.262852570514103,0.3952188697646544
4.264852970594119,0.4986276583685312
4.266853370674135,0.6055107937442294
4.268853770754151,0.711878791400564
4.270854170834167,0.8137554640816007
4.272854570914183,0.9073188992193035
4.274854970994199,0.9890369702510311
4.276855371074215,1.0557925793116953
4.278855771154231,1.104994192726303
4.280856171234247,1.1346677519460038
4.282856571314263,1.1435267026177585
4.284856971394279,1.1310176599628887
4.286857371474295,1.097340092079278
4.288857771554311,1.0434393235772865
4.290858171634327,0.9709731074763608
4.292858571714343,0.8822529500202229
4.294858971794359,0.7801622678154232
4.296859371874375,0.6680542777516716
4.298859771954391,0.5496332384248046
4.300860172034407,0.42882325179952063
4.302860572114423,0.309629274709343
4.304860972194439,0.19599526587135332
4.306861372274455,0.09166449560956336
4.308861772354471,4.696883425941989e-05
4.310862172434487,-0.07590134026566353
4.312862572514503,-0.13378316196445533
4.314862972594519,-0.1718448036011596
4.316863372674535,-0.18903821321251324
4.318863772754551,-0.1850580347100651
4.320864172834567,-0.16035234140516602
4.322864572914583,-0.11610666751529808
4.3248649729945985,-0.05420190359512911
4.3268653730746145,0.022852451911402838
4.3288657731546305,0.11200731943111905
4.3308661732346465,0.20978218823220132
4.3328665733146625,0.3123885567834833
4.3348669733946785,0.41586428879507165
4.3368673734746945,0.5162141233848643
4.3388677735547105,0.6095513597155746
4.3408681736347265,0.6922356948238482
4.3428685737147426,0.7610023296922626
4.344868973794759,0.8130777680656964
4.346869373874775,0.8462782041166746
4.348869773954791,0.8590870121099858
4.350870174034807,0.8507085918335795
4.352870574114823,0.8210966615058006
4.354870974194839,0.7709559954409129
4.356871374274855,0.7017175448627702
4.358871774354871,0.6154878235478247
4.360872174434887,0.5149743520235902
4.362872574514903,0.4033898025245514
4.364872974594919,0.2843382417447792
4.366873374674935,0.16168750287416628
4.368873774754951,0.03943220997756863
4.370874174834967,-0.07844769094521516
4.372874574914983,-0.1881278806402453
4.374874974994999,-0.2860750998798042
4.376875375075015,-0.36917226766498534
4.378875775155031,-0.4348288502357529
4.380876175235047,-0.4810725694795746
4.382876575315063,-0.5066192006545427
4.384876975395079,-0.5109179858494526
4.386877375475095,-0.4941710537725415
4.388877775555111,-0.4573261576666351
4.390878175635127,-0.4020429887442266
4.392878575715143,-0.33063425900946886
4.394878975795159,-0.2459836414980625
4.396879375875175,-0.15144347613004275
4.398879775955191,-0.050715866469836925
4.400880176035207,0.05227861869211079
4.402880576115223,0.1535399857414041
4.404880976195239,0.24913067105780443
4.406881376275255,0.3353151829399753
4.408881776355271,0.4086925817517746
4.410882176435287,0.46631710321584635
4.412882576515303,0.5058026499830426
4.414882976595319,0.5254074483085932
4.416883376675335,0.5240958696074542
4.418883776755351,0.5015752259298124
4.420884176835367,0.45830623531268655
4.422884576915383,0.39548678609392385
4.424884976995399,0.31500957554982895
4.426885377075415,0.2193951241022627
4.428885777155431,0.1117025390219897
4.430886177235447,-0.004578809895081443
4.432886577315463,-0.12565286372925918
4.434886977395479,-0.24755131754458726
4.436887377475495,-0.3662741686124845
4.438887777555511,-0.4779313887981588
4.440888177635527,-0.5788807003160832
4.442888577715543,-0.6658565721563539
4.444888977795559,-0.7360858656185667
4.446889377875575,-0.7873860305414326
4.448889777955591,-0.8182423722121889
4.450890178035607,-0.8278616506673103
4.452890578115623,-0.816200112866932
4.454890978195639,-0.7839649643146405
4.456891378275655,-0.732589227990239
4.458891778355671,-0.6641808816065776
4.460892178435687,-0.5814480757679301
4.462892578515703,-0.48760308329105917
4.464892978595719,-0.386248383709746
4.466893378675735,-0.2812489201050849
4.468893778755751,-0.17659505545223608
4.470894178835767,-0.07626108527863537
4.472894578915783,0.015935679088385668
4.474894978995799,0.09647026262865882
4.476895379075815,0.1622350172443126
4.478895779155831,0.2106498212441989
4.480896179235847,0.23975358225142335
4.482896579315863,0.24827380068790816
4.484896979395879,0.23567172851543794
4.486897379475895,0.20216152280802469
4.488897779555911,0.14870271534452978
4.490898179635927,0.07696626508104865
4.492898579715943,-0.010724603423738377
4.494898979795959,-0.11147667898039676
4.496899379875975,-0.22192924421531832
4.498899779955991,-0.3383731256364485
4.500900180036007,-0.45688209424094706
4.502900580116023,-0.5734519598885078
4.504900980196039,-0.6841424299994291
4.506901380276055,-0.7852167051694523
4.508901780356071,-0.8732738644958015
4.510902180436087,-0.9453693489383992
4.512902580516103,-0.9991192728410594
4.514902980596119,-1.032784866860978
4.516903380676135,-1.045334059690254
4.518903780756151,-1.0364780161449887
4.520904180836167,-1.0066813367347434
4.522904580916183,-0.9571455572516998
4.524904980996199,-0.8897665331560606
4.526905381076215,-0.8070672190469124
4.528905781156231,-0.7121082254964259
4.530906181236247,-0.6083793230868659
4.532906581316263,-0.4996757387135311
4.534906981396279,-0.3899636281727807
4.536907381476295,-0.28323949264228054
4.538907781556311,-0.1833885212866031
4.540908181636327,-0.0940468802778931
4.542908581716343,-0.018472828662518592
4.544908981796359,0.040568771317153474
4.546909381876375,0.08090445653101946
4.548909781956391,0.1010292047313302
4.550910182036407,0.10015978545056253
4.552910582116423,0.07826252928924182
4.554910982196439,0.03605453145917964
4.556911382276455,-0.02502175307180693
4.558911782356471,-0.10284962249529611
4.560912182436487,-0.19471313771484455
4.562912582516503,-0.29739337022412704
4.564912982596519,-0.40728247732073813
4.566913382676535,-0.5205115618701371
4.568913782756551,-0.6330877853153604
4.570914182836567,-0.7410358746954789
4.572914582916583,-0.8405390087134881
4.574914982996599,-0.9280740899000894
4.576915383076615,-1.000536608874076
4.578915783156631,-1.0553506755518416
4.580916183236647,-1.090560317835942
4.582916583316663,-1.1048988121858399
4.584916983396679,-1.0978335890154842
4.586917383476695,-1.0695851214811252
4.588917783556711,-1.021119128241291
4.590918183636727,-0.9541123665134957
4.592918583716743,-0.8708932277019048
4.5949189837967594,-0.7743592408573581
4.5969193838767755,-0.6678744076086292
4.5989197839567915,-0.5551500069686104
4.6009201840368075,-0.44011309424020373
4.6029205841168235,-0.3267673543628802
4.6049209841968395,-0.21905124099624257
4.6069213842768555,-0.12069842882901077
4.6089217843568715,-0.03510552462156341
4.6109221844368875,0.03478827475690344
4.6129225845169035,0.086605312433505
4.6149229845969195,0.1186136994577997
4.6169233846769355,0.1297886555547607
4.6189237847569515,0.1198487888232464
4.6209241848369675,0.08926602865371913
4.6229245849169835,0.039248859859485785
4.6249249849969996,-0.028300547788750074
4.626925385077016,-0.11085379529759459
4.628925785157032,-0.20534590483428905
4.630926185237048,-0.3082839875674619
4.632926585317064,-0.41587107780213867
4.63492698539708,-0.5241407447576278
4.636927385477096,-0.629097711380644
4.638927785557112,-0.7268594966993012
4.640928185637128,-0.8137940619481683
4.642928585717144,-0.8866485823203458
4.64492898579716,-0.9426647807059589
4.646929385877176,-0.9796767360146632
4.648929785957192,-0.9961876997736743
4.650930186037208,-0.9914231986315024
4.652930586117224,-0.9653585408160327
4.65493098619724,-0.9187197517097117
4.656931386277256,-0.8529579053665916
4.658931786357272,-0.7701977616337108
4.660932186437288,-0.6731625291390478
4.662932586517304,-0.5650774204980331
4.66493298659732,-0.4495554176870954
4.666933386677336,-0.3304692959967623
4.668933786757352,-0.21181444196797378
4.670934186837368,-0.09756732697265347
4.672934586917384,0.008455347938212843
4.6749349869974,0.10273184408549235
4.676935387077416,0.1821601229767026
4.678935787157432,0.2441677092440947
4.680936187237448,0.2868027852257616
4.682936587317464,0.3088032888533609
4.68493698739748,0.30964156606493004
4.686937387477496,0.28954299530010197
4.688937787557512,0.2494779240549127
4.690938187637528,0.19112720328445643
4.692938587717544,0.1168225411242359
4.69493898779756,0.02946378979532316
4.696939387877576,-0.06758390296197397
4.698939787957592,-0.17060943298739706
4.700940188037608,-0.27568733997591555
4.702940588117624,-0.37881700504001725
4.70494098819764,-0.4760645124252132
4.706941388277656,-0.5637021478281021
4.708941788357672,-0.6383405895240085
4.710942188437688,-0.6970491074758074
4.712942588517704,-0.7374595105871862
4.71494298859772,-0.7578501582242717
4.716943388677736,-0.7572070586438455
4.718943788757752,-0.7352598889980458
4.720944188837768,-0.6924916603554672
4.722944588917784,-0.6301216851893792
4.7249449889978,-0.5500624509344589
4.726945389077816,-0.4548519279726793
4.728945789157832,-0.34756371100373423
4.730946189237848,-0.23169817833200745
4.732946589317864,-0.11105852632009414
4.73494698939788,0.010383927722418584
4.736947389477896,0.1286304006241934
4.738947789557912,0.23979627167111411
4.740948189637928,0.34024866492887484
4.742948589717944,0.4267351097268699
4.74494898979796,0.4964987196480698
4.746949389877976,0.5473758081485955
4.748949789957992,0.577872481370084
4.750950190038008,0.5872174937483925
4.752950590118024,0.5753894932599022
4.75495099019804,0.5431176907684043
4.756951390278056,0.4918559297755478
4.758951790358072,0.42373107555777045
4.760952190438088,0.34146755278363783
4.762952590518104,0.24829070599510003
4.76495299059812,0.14781240784539784
4.766953390678136,0.0439029691195198
4.768953790758152,-0.05944610997730505
4.770954190838168,-0.15826368319562256
4.772954590918184,-0.24873978001360153
4.7749549909982,-0.3273607151095754
4.776955391078216,-0.39103369728198056
4.778955791158232,-0.4371965216993498
4.780956191238247,-0.4639084580043258
4.782956591318263,-0.46991911320790936
4.784956991398279,-0.4547128288754747
4.786957391478295,-0.41852703916214357
4.788957791558311,-0.36234393907292867
4.790958191638327,-0.28785575819916587
4.792958591718343,-0.19740487059504597
4.794958991798359,-0.09390086325633414
4.796959391878375,0.019282497758335918
4.798959791958391,0.13842675210201072
4.800960192038407,0.259600446335188
4.802960592118423,0.37879838412202965
4.804960992198439,0.49208349047237826
4.806961392278455,0.5957262624338929
4.808961792358471,0.686336864173698
4.810962192438487,0.7609851850688101
4.812962592518503,0.8173046060109687
4.814962992598519,0.8535757965060002
4.816963392678535,0.8687875728489918
4.818963792758551,0.8626726606032243
4.820964192838567,0.8357170939928285
4.822964592918583,0.7891429191168271
4.824964992998599,0.72486481399479
4.826965393078615,0.6454221628318244
4.828965793158631,0.5538889917838005
4.830966193238647,0.45376495808367434
4.832966593318663,0.34885125585138377
4.834966993398679,0.24311583645665963
4.836967393478695,0.1405527199921112
4.838967793558711,0.04504038382250494
4.840968193638727,-0.03979575311608477
4.842968593718743,-0.11071187674557226
4.8449689937987594,-0.1649607993504596
4.8469693938787755,-0.20038937982232619
4.8489697939587915,-0.21551489009217548
4.8509701940388075,-0.20957762133778884
4.8529705941188235,-0.1825678656072516
4.8549709941988395,-0.13522631662598156
4.8569713942788555,-0.06901787556922953
4.8589717943588715,0.013920209899429659
4.8609721944388875,0.11085403540317837
4.8629725945189035,0.21854987603546622
4.8649729945989195,0.3333887371255524
4.8669733946789355,0.451494559961118
4.8689737947589515,0.5688715389157598
4.8709741948389675,0.6815456835247076
4.8729745949189835,0.7857056086111703
4.8749749949989996,0.8778375629241404
4.876975395079016,0.9548499109324473
4.878975795159032,1.014182656195976
4.880976195239048,1.0538981248555523
4.882976595319064,1.072749595461077
4.88497699539908,1.070225442930742
4.886977395479096,1.0465672322040045
4.888977795559112,1.0027611203637723
4.890978195639128,0.9405028719409554
4.892978595719144,0.8621377272533453
4.89497899579916,0.7705772548291618
4.896979395879176,0.6691961346414941
4.898979795959192,0.5617125301234572
4.900980196039208,0.45205628854145563
4.902980596119224,0.3442296406619414
4.90498099619924,0.2421653364689667
4.906981396279256,0.1495872445548589
4.908981796359272,0.06987835549431493
4.910982196439288,0.005960867117374258
4.912982596519304,-0.03980739858167054
4.91498299659932,-0.06571657594990904
4.916983396679336,-0.07076537153106055
4.918983796759352,-0.05469656706465631
4.920984196839368,-0.018006151413956395
4.922984596919384,0.03807424221094874
4.9249849969994,0.11162097131762527
4.926985397079416,0.20008654507355955
4.928985797159432,0.3003898955278915
4.930986197239448,0.4090255599338212
4.932986597319464,0.5221879047900754
4.93498699739948,0.6359059891464891
4.936987397479496,0.7461842876667737
4.938987797559512,0.8491442862735976
4.940988197639528,0.9411619322764965
4.942988597719544,1.0189960677990322
4.94498899779956,1.079903294868707
4.946989397879576,1.1217352013907391
4.948989797959592,1.1430145023495397
4.950990198039608,1.1429873978181586
4.952990598119624,1.1216502922231146
4.95499099819964,1.0797499279393243
4.956991398279656,1.0187569284758085
4.958991798359672,0.9408136888668304
4.960992198439688,0.8486584600082929
4.962992598519704,0.7455283173567169
4.96499299859972,0.6350444527381185
4.966993398679736,0.5210838544764763
4.968993798759752,0.40764192344335537
4.970994198839768,0.29869089385870207
4.972994598919784,0.19803907634941248
4.9749949989998,0.10919591163211007
4.976995399079816,0.03524761725965625
4.978995799159832,-0.021252165543659385
4.980996199239848,-0.058372849531215965
4.982996599319864,-0.07487529708203716
4.98499699939988,-0.07025570994053487
4.986997399479896,-0.04476345762154532
4.988997799559912,0.000607787341439292
4.990998199639928,0.06415529313089563
4.992998599719944,0.1435276423274252
4.99499899979996,0.23580809590722318
4.996999399879976,0.33761799315457913
4.998999799959992,0.4452365230230952
5.001000200040008,0.55473262228105
5.003000600120024,0.6621043260072701
5.00500100020004,0.7634206318950585
5.007001400280056,0.854960850733027
5.009001800360072,0.9333465045203888
5.011002200440088,0.9956610977830744
5.013002600520104,1.0395535174261181
5.01500300060012,1.0633213966560073
5.017003400680136,1.0659714885727405
5.019003800760152,1.047254909799388
5.021004200840168,1.0076760051138693
5.023004600920184,0.948474518909014
5.0250050010002,0.8715817053030466
5.027005401080216,0.779551932327005
5.029005801160232,0.6754722040962423
5.031006201240248,0.56285280745147
5.033006601320264,0.4455029584964111
5.03500700140028,0.3273958560570798
5.037007401480296,0.2125279245022511
5.039007801560312,0.10477723429162233
5.041008201640328,0.0077661177583286944
5.043008601720344,-0.07526715104410381
5.04500900180036,-0.14158306482873684
5.047009401880376,-0.1890379146863606
5.049009801960392,-0.21615970607340212
5.051010202040408,-0.22220026875921178
5.053010602120424,-0.20716171399279248
5.05501100220044,-0.17179630127425832
5.057011402280456,-0.11757971947022816
5.059011802360472,-0.04665872919836772
5.061012202440488,0.03822497796644919
5.063012602520504,0.13383200504471976
5.06501300260052,0.23654011430757482
5.067013402680536,0.34247266025595163
5.069013802760552,0.4476360392872653
5.071014202840568,0.5480612848661479
5.073014602920584,0.6399447900998623
5.0750150030006,0.7197831705436477
5.077015403080616,0.7844974877291929
5.079015803160632,0.831542430961413
5.081016203240648,0.8589965880020518
5.083016603320664,0.8656306054614418
5.08501700340068,0.8509508233002618
5.087017403480696,0.8152168370315916
5.089017803560712,0.759432365206217
5.091018203640728,0.6853097458148498
5.093018603720744,0.5952093198226243
5.09501900380076,0.4920558500416946
5.097019403880776,0.37923493740702174
5.099019803960792,0.2604731056050204
5.101020204040808,0.13970580379228592
5.103020604120824,0.02093800532003043
5.10502100420084,-0.09189765722534138
5.107021404280856,-0.1950801930429752
5.109021804360872,-0.28523205344219416
5.111022204440888,-0.3594387605354422
5.113022604520904,-0.4153521247219676
5.11502300460092,-0.4512733929922619
5.117023404680936,-0.46621338132683415
5.119023804760952,-0.4599274601388167
5.121024204840968,-0.43292415290822367
5.123024604920984,-0.3864470432945752
5.1250250050010004,-0.3224306319521833
5.1270254050810165,-0.24343170748527188
5.1290258051610325,-0.15253866374989755
5.1310262052410485,-0.0532619772828829
5.1330266053210645,0.05059027368392524
5.1350270054010805,0.1550474370451964
5.1370274054810965,0.2561170761244405
5.1390278055611125,0.34992653091815284
5.1410282056411285,0.432860234384404
5.1430286057211445,0.5016879173193796
5.1450290058011605,0.5536791582699494
5.1470294058811765,0.5867002188574729
5.1490298059611925,0.5992897326866691
5.1510302060412085,0.5907105654346242
5.1530306061212245,0.5609760081997085
5.1550310062012406,0.5108493758101073
5.157031406281257,0.4418170243102072
5.159031806361273,0.3560357438577507
5.161032206441289,0.25625639139075723
5.163032606521305,0.14572646947736215
5.165033006601321,0.028075103900768644
5.167033406681337,-0.09281550368502203
5.169033806761353,-0.2129475923753425
5.171034206841369,-0.32834945438893715
5.173034606921385,-0.4352161245220879
5.175035007001401,-0.5300441607166341
5.177035407081417,-0.6097557391842888
5.179035807161433,-0.6718076662177189
5.181036207241449,-0.71428144336562
5.183036607321465,-0.735951194110739
5.185037007401481,-0.7363270447696993
5.187037407481497,-0.7156724222266636
5.189037807561513,-0.6749946554903863
5.191038207641529,-0.6160092141667459
5.193038607721545,-0.5410788512365767
5.195039007801561,-0.4531298069105787
5.197039407881577,-0.35554804327985745
5.199039807961593,-0.2520591871816521
5.201040208041609,-0.14659643607444764
5.203040608121625,-0.043161108302944645
5.205041008201641,0.054319220186739084
5.207041408281657,0.1421299650861839
5.209041808361673,0.2169012339637042
5.211042208441689,0.2757273100827493
5.213042608521705,0.3162696853253142
5.215043008601721,0.3368399907589551
5.217043408681737,0.3364598858073315
5.219043808761753,0.31489578356236564
5.221044208841769,0.2726671815744609
5.223044608921785,0.21102830286953622
5.225045009001801,0.13192369781758823
5.227045409081817,0.03791938029555597
5.229045809161833,-0.06788806135690095
5.231046209241849,-0.18198115752464608
5.233046609321865,-0.3005461671711446
5.23504700940188,-0.4196081882414804
5.237047409481896,-0.5351719803617548
5.239047809561912,-0.6433635091377349
5.241048209641928,-0.7405671957857959
5.243048609721944,-0.8235540080271885
5.24504900980196,-0.8895958527603938
5.247049409881976,-0.9365622164853581
5.249049809961992,-0.9629956285866508
5.251050210042008,-0.9681632730918435
5.253050610122024,-0.9520829198109144
5.25505101020204,-0.9155222558735728
5.257051410282056,-0.8599716413613024
5.259051810362072,-0.7875912545709086
5.261052210442088,-0.7011345000681082
5.263052610522104,-0.6038503939273924
5.26505301060212,-0.4993683855948674
5.267053410682136,-0.3915696982501224
5.269053810762152,-0.2844497473222869
5.271054210842168,-0.18197651300231893
5.273054610922184,-0.08794988598147885
5.2750550110022,-0.005866971156063661
5.277055411082216,0.061201877111085934
5.279055811162232,0.11072189490379164
5.281056211242248,0.14078376659064878
5.283056611322264,0.15017131605622808
5.28505701140228,0.13840463237018358
5.287057411482296,0.10575710153382528
5.289057811562312,0.05324574070291355
5.291058211642328,-0.01740482256380632
5.293058611722344,-0.10382344947009539
5.29505901180236,-0.20307650223144078
5.297059411882376,-0.3117717920460458
5.299059811962392,-0.426178778911349
5.301060212042408,-0.5423607634491376
5.303060612122424,-0.6563143859107086
5.30506101220244,-0.764111488568899
5.307061412282456,-0.8620383139462078
5.309061812362472,-0.9467271057448918
5.311062212442488,-1.015275448590134
5.313062612522504,-1.0653491172290486
5.31506301260252,-1.0952647902468309
5.317063412682536,-1.104049696955201
5.319063812762552,-1.091476083587871
5.321064212842568,-1.058069277332054
5.323064612922584,-1.005089062407588
5.3250650130026,-0.9344850282163867
5.327065413082616,-0.8488274720047153
5.329065813162632,-0.7512163048197188
5.331066213242648,-0.6451711890964655
5.333066613322664,-0.5345068013556351
5.33506701340268,-0.4231976406523273
5.337067413482696,-0.3152371739109731
5.339067813562712,-0.21449630997973582
5.341068213642728,-0.1245862180275174
5.343068613722744,-0.04873035194453229
5.34506901380276,0.01034978385004165
5.347069413882776,0.050531078780892025
5.349069813962792,0.07036405272152257
5.351070214042808,0.06912421847943745
5.353070614122824,0.046837749899419856
5.35507101420284,0.004280545922520307
5.357071414282856,-0.057049276223908874
5.359071814362872,-0.13498448386779854
5.361072214442888,-0.22676554581414166
5.363072614522904,-0.3291384409770443
5.36507301460292,-0.43846999241350293
5.367073414682936,-0.5508766393564213
5.369073814762952,-0.6623620836061961
5.371074214842968,-0.7689589321367624
5.373074614922984,-0.8668693161462341
5.3750750150030004,-0.9525995030577041
5.3770754150830165,-1.0230837308625205
5.3790758151630325,-1.0757928761545998
5.3810762152430485,-1.1088241046925624
5.3830766153230645,-1.1209683272984519
5.3850770154030805,-1.1117530704723597
5.3870774154830965,-1.0814592423954912
5.3890778155631125,-1.0311112001318445
5.3910782156431285,-0.9624404700342013
5.3930786157231445,-0.8778244070806596
5.3950790158031605,-0.7802019670230164
5.3970794158831765,-0.672969576341158
5.3990798159631925,-0.5598607903247155
5.4010802160432085,-0.4448140041450799
5.4030806161232245,-0.3318329051788229
5.4050810162032406,-0.2248446120906597
5.407081416283257,-0.1275605281643668
5.409081816363273,-0.04334484017799983
5.411082216443289,0.024904676835622974
5.413082616523305,0.0748593247183782
5.415083016603321,0.10484197880253093
5.417083416683337,0.11388649237376852
5.419083816763353,0.10177190372015249
5.421084216843369,0.0690302334927318
5.423084616923385,0.01692759605322597
5.425085017003401,-0.05258070577319074
5.427085417083417,-0.13691951110343364
5.429085817163433,-0.23298509950507806
5.431086217243449,-0.3372552220111289
5.433086617323465,-0.4459139651709694
5.435087017403481,-0.5549870229900855
5.437087417483497,-0.6604825827591098
5.439087817563513,-0.7585328318194308
5.441088217643529,-0.8455310703047116
5.443088617723545,-0.9182595706233319
5.445089017803561,-0.9740036523751685
5.447089417883577,-1.010647929919522
5.449089817963593,-1.0267513216025135
5.451090218043609,-1.0215981623337016
5.453090618123625,-0.9952236080882384
5.455091018203641,-0.9484124319967936
5.457091418283657,-0.8826712546768156
5.459091818363673,-0.8001751929403349
5.461092218443689,-0.7036908176153978
5.463092618523705,-0.5964781508164377
5.465093018603721,-0.48217517583046404
5.467093418683737,-0.36466895253553744
5.469093818763753,-0.24795790595936806
5.471094218843769,-0.13601016841043728
5.473094618923785,-0.03262299546988212
5.475095019003801,0.058711761920720806
5.477095419083817,0.13493136167038366
5.479095819163833,0.19351066702744707
5.481096219243849,0.23255159028421224
5.483096619323865,0.2508503138570871
5.485097019403881,0.2479399064642968
5.487097419483897,0.22410682411209099
5.489097819563913,0.18038071111261694
5.491098219643929,0.11849786259367218
5.493098619723945,0.04083964338822732
5.495099019803961,-0.04965195427321162
5.497099419883977,-0.14957862164981672
5.499099819963993,-0.25520621620733763
5.501100220044009,-0.36259714628783735
5.503100620124025,-0.46774996605837554
5.505101020204041,-0.5667412335312275
5.507101420284057,-0.6558646042494805
5.509101820364073,-0.7317622311965586
5.511102220444089,-0.7915438141530652
5.513102620524105,-0.8328890794252255
5.515103020604121,-0.8541300580880276
5.517103420684137,-0.8543102468220809
5.519103820764153,-0.8332185546935288
5.521104220844169,-0.7913968328046661
5.523104620924185,-0.7301207199556925
5.525105021004201,-0.6513544831286406
5.527105421084217,-0.5576814532194037
5.529105821164233,-0.4522125213380128
5.531106221244249,-0.33847593852350644
5.533106621324265,-0.2202923243205928
5.535107021404281,-0.10163931385550429
5.537107421484297,0.01348935974017934
5.539107821564313,0.12122535350369221
5.541108221644329,0.2179627591331432
5.543108621724345,0.3004858470038393
5.545109021804361,0.36608298251673044
5.547109421884377,0.4126426776376271
5.549109821964393,0.43872837360501216
5.551110222044409,0.4436293045461518
5.553110622124425,0.4273856394230364
5.555111022204441,0.39078701129735177
5.557111422284457,0.3353444860462298
5.559111822364473,0.2632369639574652
5.561112222444489,0.17723391372071373
5.563112622524505,0.08059717710418007
5.565113022604521,-0.023034675669204877
5.567113422684537,-0.12977534143231415
5.569113822764553,-0.235628558910493
5.571114222844569,-0.3366297801838938
5.573114622924585,-0.42898671798428534
5.575115023004601,-0.5092137878711431
5.577115423084617,-0.5742556806988796
5.579115823164633,-0.6215956860032064
5.581116223244649,-0.6493449273570698
5.583116623324665,-0.6563093472207006
5.585117023404681,-0.6420320673582529
5.587117423484697,-0.6068096235760877
5.589117823564713,-0.5516814994213899
5.591118223644729,-0.4783933297550409
5.593118623724745,-0.38933507824342367
5.595119023804761,-0.2874563797275953
5.597119423884777,-0.1761620476988895
5.599119823964793,-0.059191450048649646
5.601120224044809,0.05951397203439184
5.603120624124825,0.17595034694616368
5.605121024204841,0.2861932284427886
5.607121424284857,0.3865366369992774
5.609121824364873,0.47362435918511564
5.611122224444889,0.544568851859873
5.613122624524905,0.5970535372760652
5.615123024604921,0.6294148637931902
5.617123424684937,0.6407012240087772
5.619123824764953,0.6307066422745666
5.621124224844969,0.5999780377309316
5.623124624924985,0.5497958054657512
5.625125025005001,0.4821284039994478
5.627125425085017,0.39956255850487726
5.629125825165033,0.30521155333872263
5.631126225245049,0.20260486396835758
5.633126625325065,0.09556303970363472
5.635127025405081,-0.011937728653416385
5.637127425485097,-0.11590655656193338
5.639127825565113,-0.21247933375985936
5.641128225645129,-0.2980556989651449
5.643128625725145,-0.3694266669255027
5.645129025805161,-0.4238883847552614
5.647129425885177,-0.4593379860745189
5.649129825965193,-0.47434814591010277
5.651130226045209,-0.46821769415764003
5.653130626125225,-0.44099649387820195
5.655131026205241,-0.39348370274881556
5.6571314262852574,-0.3271994792770351
5.6591318263652735,-0.24433113649823507
5.6611322264452895,-0.14765565144503487
5.6631326265253055,-0.04044127662303321
5.6651330266053215,0.0736682596582641
5.6671334266853375,0.1907828602025583
5.6691338267653535,0.30690389759470654
5.6711342268453695,0.418065899668174
5.6731346269253855,0.5204770604955068
5.6751350270054015,0.6106535972441183
5.6771354270854175,0.6855431913434917
5.6791358271654335,0.7426331392553042
5.6811362272454495,0.780039380024415
5.6831366273254655,0.7965732445095193
5.6851370274054815,0.7917835607257591
5.6871374274854976,0.7659726231033148
5.689137827565514,0.7201854597181677
5.691138227645529,0.6561727778612954
5.693138627725545,0.5763289011426623
5.695139027805561,0.4836068976169706
5.697139427885577,0.3814139067589012
5.699139827965593,0.2734903748630611
5.701140228045609,0.16377747872008466
5.703140628125625,0.05627743602708074
5.705141028205641,-0.04508834692202568
5.707141428285657,-0.13661826307063218
5.709141828365673,-0.21496170228271516
5.711142228445689,-0.27723780927602265
5.713142628525705,-0.3211375930697374
5.715143028605721,-0.34500576922510995
5.717143428685737,-0.3478994344207746
5.719143828765753,-0.32962149395860996
5.721144228845769,-0.290727657541976
5.723144628925785,-0.23250675539951604
5.725145029005801,-0.15693507234509319
5.727145429085817,-0.06660631815828705
5.729145829165833,0.035360283888424326
5.731146229245849,0.1454305330472498
5.733146629325865,0.25978049429874867
5.735147029405881,0.37443201016904804
5.737147429485897,0.4853936786683395
5.739147829565913,0.5888023011445168
5.741148229645929,0.6810597871897917
5.743148629725945,0.7589606647385465
5.745149029805961,0.8198056764451154
5.747149429885977,0.8614974365241764
5.749149829965993,0.8826147580099685
5.751150230046009,0.8824630163004368
5.753150630126025,0.861098764119385
5.755151030206041,0.8193277255487772
5.757151430286057,0.7586762402195186
5.759151830366073,0.681337169665948
5.761152230446089,0.5900921828998846
5.763152630526105,0.488213175372203
5.765153030606121,0.3793463149956394
5.767153430686137,0.26738282459073653
5.769153830766153,0.15632108017641066
5.771154230846169,0.05012491228588983
5.773154630926185,-0.04741686794376848
5.775155031006201,-0.13282473957014201
5.777155431086217,-0.2030517810254434
5.779155831166233,-0.2555916476512005
5.781156231246249,-0.28856739090523986
5.783156631326265,-0.30079797152564924
5.785157031406281,-0.2918401094520536
5.787157431486297,-0.26200398736252795
5.789157831566313,-0.21234225130150647
5.791158231646329,-0.1446126982163643
5.793158631726345,-0.06121597274548446
5.795159031806361,0.03488951873482421
5.797159431886377,0.1402924613874056
5.799159831966393,0.25124953654865584
5.801160232046409,0.3638180929026794
5.803160632126425,0.47399588237201906
5.805161032206441,0.5778629085348186
5.807161432286457,0.6717203605069617
5.809161832366473,0.7522217085214691
5.811162232446489,0.816491315221479
5.813162632526505,0.862226359122067
5.815163032606521,0.8877784581080842
5.817163432686537,0.892212100256202
5.819163832766553,0.875337811211193
5.821164232846569,0.8377188826722874
5.823164632926585,0.7806514235305104
5.825165033006601,0.7061184406334723
5.827165433086617,0.616719576533506
5.829165833166633,0.515578994284263
5.831166233246649,0.4062346738089962
5.833166633326665,0.2925130431336941
5.835167033406681,0.17839338750225725
5.837167433486697,0.06786684166084539
5.839167833566713,-0.035205037430769304
5.841168233646729,-0.12722710533592924
5.843168633726745,-0.20499802295570924
5.845169033806761,-0.26582369267334766
5.847169433886777,-0.30761271769609466
5.849169833966793,-0.32895050155645406
5.851170234046809,-0.3291493617171551
5.853170634126825,-0.30827288127735997
5.855171034206841,-0.267133635768709
5.857171434286857,-0.20726437560713556
5.859171834366873,-0.1308636854885612
5.861172234446889,-0.04071804654347144
5.863172634526905,0.05989693665666029
5.865173034606921,0.16733264375737295
5.867173434686937,0.2776967661280876
5.869173834766953,0.38699127089233504
5.871174234846969,0.4912541120845698
5.873174634926985,0.5866996667358186
5.875175035007001,0.6698529188827103
5.877175435087017,0.7376726360615866
5.879175835167033,0.7876591729555052
5.881176235247049,0.8179430816665512
5.883176635327065,0.8273513882947965
5.885177035407081,0.8154491870011606
5.887177435487097,0.7825550774716354
5.889177835567113,0.7297298986802615
5.891178235647129,0.658739158217823
5.893178635727145,0.5719904886718976
5.895179035807161,0.47244834757746806
5.897179435887177,0.3635289839345941
5.899179835967193,0.2489793936380081
5.901180236047209,0.13274455358725457
5.903180636127225,0.01882763964894696
5.905181036207241,-0.0888518177115934
5.9071814362872574,-0.18659681321970378
5.9091818363672735,-0.27106386015948436
5.9111822364472895,-0.3393814549676732
5.9131826365273055,-0.38925181471599885
5.9151830366073215,-0.41903228194871833
5.9171834366873375,-0.4277935119212727
5.9191838367673535,-0.41535238011114084
5.9211842368473695,-0.38227844377483705
5.9231846369273855,-0.3298737285604178
5.9251850370074015,-0.2601265565352548
5.9271854370874175,-0.175641051950499
5.9291858371674335,-0.07954482303736637
5.9311862372474495,0.024621908438175688
5.9331866373274655,0.13303180064995035
5.9351870374074815,0.24170606076768203
5.9371874374874976,0.34665548153063397
5.939187837567514,0.44402184704819203
5.94118823764753,0.5302146964556858
5.943188637727546,0.6020385985655278
5.945189037807562,0.6568064269444968
5.947189437887578,0.6924346209841252
5.949189837967594,0.7075170569440907
5.95119023804761,0.7013749110005771
5.953190638127626,0.674080747167961
5.955191038207642,0.6264559764220088
5.957191438287658,0.5600417770681524
5.959191838367674,0.47704450692160744
5.96119223844769,0.38025754186786576
5.963192638527706,0.2729623108106747
5.965193038607722,0.1588120342895561
5.967193438687738,0.041702287021305434
5.969193838767754,-0.07436702842117032
5.97119423884777,-0.18543340519715645
5.973194638927786,-0.28771213042411337
5.975195039007802,-0.3777303823864221
5.977195439087818,-0.45245027437360363
5.979195839167834,-0.5093764845259269
5.98119623924785,-0.5466446573280929
5.983196639327866,-0.5630874438402363
5.985197039407882,-0.5582758402283542
5.987197439487898,-0.53253435957644
5.989197839567914,-0.4869294993011618
5.99119823964793,-0.4232319128841142
5.993198639727946,-0.34385362654523843
5.995199039807962,-0.2517625258805316
5.997199439887978,-0.15037714302907185
5.999199839967994,-0.04344547307915943
6.00120024004801,0.06508788558209305
6.003200640128026,0.17122155847255704
6.005201040208042,0.2710392343451187
6.007201440288058,0.360848489905457
6.009201840368074,0.437311680015953
6.01120224044809,0.4975642546823958
6.013202640528106,0.5393163097071714
6.015203040608122,0.560933772088488
6.017203440688138,0.5614963429795892
6.019203840768154,0.5408301447273793
6.02120424084817,0.49951391498677733
6.023204640928186,0.43885852838941725
6.025205041008202,0.3608605715072402
6.027205441088218,0.2681316163921603
6.029205841168234,0.1638056992081434
6.03120624124825,0.05142828287362072
6.033206641328266,-0.06516936116683927
6.035207041408282,-0.18200590018142154
6.037207441488298,-0.29509100557445433
6.039207841568314,-0.40056673719001445
6.04120824164833,-0.49484423589461146
6.043208641728346,-0.5747308801065572
6.045209041808362,-0.6375433998977567
6.047209441888378,-0.6812029399485402
6.049209841968394,-0.7043087023652576
6.05121024204841,-0.7061875594895848
6.053210642128426,-0.6869178784449909
6.055211042208442,-0.647326713091173
6.057211442288458,-0.5889604629071472
6.059211842368474,-0.5140300386453704
6.06121224244849,-0.42533247807094887
6.063212642528506,-0.3261517896984877
6.065213042608522,-0.22014253859377958
6.067213442688538,-0.11120029991924779
6.069213842768554,-0.003323571307992268
6.07121424284857,0.09952796215668508
6.073214642928586,0.19357378731295066
6.075215043008602,0.2753465723566212
6.077215443088618,0.34181507709053427
6.079215843168634,0.3904916080903316
6.08121624324865,0.41952021061001793
6.083216643328666,0.4277424717341674
6.085217043408682,0.41473860273349056
6.087217443488698,0.380842344675226
6.089217843568714,0.32712916903478356
6.09121824364873,0.25537819147033
6.093218643728746,0.1680091485170097
6.095219043808762,0.06799667072001109
6.097219443888778,-0.04123510967078925
6.099219843968794,-0.1559338813831117
6.10122024404881,-0.2721521075566865
6.103220644128826,-0.38588689811174737
6.105221044208842,-0.49322184403259417
6.107221444288858,-0.5904657870153893
6.109221844368874,-0.6742836065389998
6.11122224444889,-0.7418143893193521
6.113222644528906,-0.7907727932682749
6.115223044608922,-0.8195300136615611
6.117223444688938,-0.8271714821084541
6.119223844768954,-0.8135292534977594
6.12122424484897,-0.7791879331432074
6.123224644928986,-0.7254639340768474
6.125225045009002,-0.654358799609122
6.127225445089018,-0.5684882453910511
6.129225845169034,-0.4709894357061688
6.13122624524905,-0.3654097800914819
6.133226645329066,-0.2555811912972741
6.135227045409082,-0.14548426084360683
6.137227445489098,-0.03910716574419154
6.139227845569114,0.05969569330212926
6.14122824564913,0.1473403124395284
6.143228645729146,0.22064012211534506
6.145229045809161,0.27691893930887046
6.147229445889177,0.3141058315374969
6.149229845969193,0.33080853069116545
6.151230246049209,0.326362794931381
6.153230646129225,0.30085596928247416
6.155231046209241,0.2551239099322746
6.1572314462892574,0.19072138123944493
6.1592318463692735,0.10986697456172478
6.1612322464492895,0.015364500957818106
6.1632326465293055,-0.08949635642860193
6.1652330466093215,-0.2010566094641666
6.1672334466893375,-0.3154176205090877
6.1692338467693535,-0.42857925135194996
6.1712342468493695,-0.5365816096511006
6.1732346469293855,-0.6356453694474846
6.1752350470094015,-0.7223056928439786
6.1772354470894175,-0.7935350067225923
6.1792358471694335,-0.8468502833404506
6.1812362472494495,-0.8804010228256507
6.1832366473294655,-0.8930348195087379
6.1852370474094815,-0.8843381884483748
6.1872374474894976,-0.8546512052777453
6.189237847569514,-0.8050554405454702
6.19123824764953,-0.7373356161572826
6.193238647729546,-0.6539163428047101
6.195239047809562,-0.5577761803860629
6.197239447889578,-0.4523420670919902
6.199239847969594,-0.3413678585522835
6.20124024804961,-0.22880128157749346
6.203240648129626,-0.11864401760761023
6.205241048209642,-0.014809874464705608
6.207241448289658,0.07901392724797252
6.209241848369674,0.15949743713577386
6.21124224844969,0.22378599603252614
6.213242648529706,0.2696014124236918
6.215243048609722,0.29532270861538
6.217243448689738,0.3000435750304048
6.219243848769754,0.2836044964688903
6.22124424884977,0.246598411787246
6.223244648929786,0.1903497064150605
6.225245049009802,0.11686728220363007
6.227245449089818,0.028773367790693838
6.229245849169834,-0.07078940758859031
6.23124624924985,-0.178269383576458
6.233246649329866,-0.28983173456490663
6.235247049409882,-0.4014943713268867
6.237247449489898,-0.5092690621072931
6.239247849569914,-0.6093027718967248
6.24124824964993,-0.6980142108786589
6.243248649729946,-0.7722207528278711
6.245249049809962,-0.8292512255199216
6.247249449889978,-0.8670405759056266
6.249249849969994,-0.8842030551529536
6.25125025005001,-0.8800813299091463
6.253250650130026,-0.8547697792998888
6.255251050210042,-0.8091111520312471
6.257251450290058,-0.7446667020679092
6.259251850370074,-0.6636608612701221
